time         theta        dtheta/dt   
0.00000000   0.00000000   2.50000000  
0.03000000   0.07498875   2.49887561  
0.06000000   0.14991012   2.49550977  
0.09000000   0.22469714   2.48992435  
0.12000000   0.29928374   2.48215548  
0.15000000   0.37360513   2.47225307  
0.18000000   0.44759821   2.46028015  
0.21000000   0.52120198   2.44631205  
0.24000000   0.59435785   2.43043546  
0.27000000   0.66700999   2.41274736  
0.30000000   0.73910563   2.39335385  
0.33000000   0.81059531   2.37236892  
0.36000000   0.88143306   2.34991318  
0.39000000   0.95157665   2.32611259  
0.42000000   1.02098766   2.30109717  
0.45000000   1.08963166   2.27499974  
0.48000000   1.15747817   2.24795475  
0.51000000   1.22450081   2.22009710  
0.54000000   1.29067722   2.19156114  
0.57000000   1.35598903   2.16247967  
0.60000000   1.42042185   2.13298307  
0.63000000   1.48396514   2.10319857  
0.66000000   1.54661212   2.07324955  
0.69000000   1.60835965   2.04325500  
0.72000000   1.66920811   2.01332908  
0.75000000   1.72916118   1.98358074  
0.78000000   1.78822576   1.95411346  
0.81000000   1.84641178   1.92502509  
0.84000000   1.90373198   1.89640772  
0.87000000   1.96020181   1.86834768  
0.90000000   2.01583922   1.84092553  
0.93000000   2.07066448   1.81421618  
0.96000000   2.12470002   1.78828900  
0.99000000   2.17797028   1.76320798  
1.02000000   2.23050155   1.73903194  
1.05000000   2.28232179   1.71581476  
1.08000000   2.33346051   1.69360556  
1.11000000   2.38394865   1.67244905  
1.14000000   2.43381839   1.65238567  
1.17000000   2.48310309   1.63345193  
1.20000000   2.53183713   1.61568063  
1.23000000   2.58005584   1.59910114  
1.26000000   2.62779538   1.58373958  
1.29000000   2.67509263   1.56961912  
1.32000000   2.72198514   1.55676015  
1.35000000   2.76851103   1.54518053  
1.38000000   2.81470892   1.53489573  
1.41000000   2.86061786   1.52591901  
1.44000000   2.90627726   1.51826160  
1.47000000   2.95172684   1.51193282  
1.50000000   2.99700659   1.50694019  
1.53000000   3.04215667   1.50328952  
1.56000000   3.08721742   1.50098499  
1.59000000   3.13222926   1.50002922  
1.62000000   3.17723267   1.50042330  
1.65000000   3.22226815   1.50216677  
1.68000000   3.26737615   1.50525767  
1.71000000   3.31259705   1.50969246  
1.74000000   3.35797109   1.51546601  
1.77000000   3.40353833   1.52257154  
1.80000000   3.44933862   1.53100048  
1.83000000   3.49541149   1.54074242  
1.86000000   3.54179617   1.55178496  
1.89000000   3.58853145   1.56411355  
1.92000000   3.63565567   1.57771137  
1.95000000   3.68320663   1.59255910  
1.98000000   3.73122150   1.60863475  
2.01000000   3.77973675   1.62591346  
2.04000000   3.82878806   1.64436723  
2.07000000   3.87841022   1.66396473  
2.10000000   3.92863703   1.68467102  
2.13000000   3.97950118   1.70644733  
2.16000000   4.03103415   1.72925075  
2.19000000   4.08326603   1.75303403  
2.22000000   4.13622547   1.77774530  
2.25000000   4.18993946   1.80332782  
2.28000000   4.24443323   1.82971979  
2.31000000   4.29973007   1.85685408  
2.34000000   4.35585118   1.88465813  
2.37000000   4.41281548   1.91305372  
2.40000000   4.47063948   1.94195694  
2.43000000   4.52933708   1.97127810  
2.46000000   4.58891939   2.00092173  
2.49000000   4.64939460   2.03078668  
2.52000000   4.71076774   2.06076625  
2.55000000   4.77304060   2.09074840  
2.58000000   4.83621150   2.12061612  
2.61000000   4.90027521   2.15024777  
2.64000000   4.96522275   2.17951767  
2.67000000   5.03104136   2.20829666  
2.70000000   5.09771432   2.23645284  
2.73000000   5.16522096   2.26385240  
2.76000000   5.23353655   2.29036054  
2.79000000   5.30263233   2.31584249  
2.82000000   5.37247550   2.34016461  
2.85000000   5.44302930   2.36319557  
2.88000000   5.51425305   2.38480756  
2.91000000   5.58610233   2.40487760  
2.94000000   5.65852911   2.42328877  
2.97000000   5.73148197   2.43993154  
3.00000000   5.80490631   2.45470501  
3.03000000   5.87874466   2.46751804  
3.06000000   5.95293698   2.47829048  
3.09000000   6.02742100   2.48695405  
3.12000000   6.10213258   2.49345330  
3.15000000   6.17700613   2.49774630  
3.18000000   6.25197501   2.49980519  
3.21000000   6.32697196   2.49961658  
3.24000000   6.40192953   2.49718169  
3.27000000   6.47678055   2.49251636  
3.30000000   6.55145851   2.48565084  
3.33000000   6.62589804   2.47662938  
3.36000000   6.70003528   2.46550963  
3.39000000   6.77380833   2.45236191  
3.42000000   6.84715754   2.43726832  
3.45000000   6.92002590   2.42032169  
3.48000000   6.99235933   2.40162446  
3.51000000   7.06410696   2.38128749  
3.54000000   7.13522136   2.35942880  
3.57000000   7.20565871   2.33617228  
3.60000000   7.27537900   2.31164641  
3.63000000   7.34434612   2.28598299  
3.66000000   7.41252794   2.25931593  
3.69000000   7.47989639   2.23178009  
3.72000000   7.54642741   2.20351017  
3.75000000   7.61210099   2.17463971  
3.78000000   7.67690110   2.14530022  
3.81000000   7.74081560   2.11562031  
3.84000000   7.80383617   2.08572503  
3.87000000   7.86595816   2.05573527  
3.90000000   7.92718050   2.02576725  
3.93000000   7.98750553   1.99593212  
3.96000000   8.04693882   1.96633566  
3.99000000   8.10548906   1.93707809  
4.02000000   8.16316784   1.90825390  
4.05000000   8.21998952   1.87995181  
4.08000000   8.27597100   1.85225478  
4.11000000   8.33113163   1.82524006  
4.14000000   8.38549295   1.79897930  
4.17000000   8.43907859   1.77353872  
4.20000000   8.49191408   1.74897925  
4.23000000   8.54402672   1.72535680  
4.26000000   8.59544537   1.70272246  
4.29000000   8.64620041   1.68112272  
4.32000000   8.69632351   1.66059978  
4.35000000   8.74584755   1.64119175  
4.38000000   8.79480650   1.62293295  
4.41000000   8.84323533   1.60585413  
4.44000000   8.89116983   1.58998275  
4.47000000   8.93864661   1.57534318  
4.50000000   8.98570295   1.56195693  
4.53000000   9.03237675   1.54984291  
4.56000000   9.07870641   1.53901753  
4.59000000   9.12473083   1.52949498  
4.62000000   9.17048926   1.52128730  
4.65000000   9.21602132   1.51440460  
4.68000000   9.26136687   1.50885513  
4.71000000   9.30656602   1.50464541  
4.74000000   9.35165904   1.50178028  
4.77000000   9.39668632   1.50026301  
4.80000000   9.44168832   1.50009531  
4.83000000   9.48670554   1.50127739  
4.86000000   9.53177845   1.50380789  
4.89000000   9.57694747   1.50768396  
4.92000000   9.62225290   1.51290112  
4.95000000   9.66773488   1.51945328  
4.98000000   9.71343337   1.52733264  
5.01000000   9.75938802   1.53652957  
5.04000000   9.80563820   1.54703251  
5.07000000   9.85222289   1.55882782  
5.10000000   9.89918064   1.57189965  
5.13000000   9.94654946   1.58622975  
5.16000000   9.99436680   1.60179725  
5.19000000   10.04266943  1.61857853  
5.22000000   10.09149338  1.63654691  
5.25000000   10.14087382  1.65567248  
5.28000000   10.19084497  1.67592183  
5.31000000   10.24144000  1.69725782  
5.34000000   10.29269089  1.71963929  
5.37000000   10.34462836  1.74302084  
5.40000000   10.39728165  1.76735254  
5.43000000   10.45067846  1.79257970  
5.46000000   10.50484479  1.81864267  
5.49000000   10.55980473  1.84547654  
5.52000000   10.61558039  1.87301105  
5.55000000   10.67219165  1.90117034  
5.58000000   10.72965604  1.92987287  
5.61000000   10.78798858  1.95903137  
5.64000000   10.84720156  1.98855277  
5.67000000   10.90730439  2.01833827  
5.70000000   10.96830345  2.04828345  
5.73000000   11.03020190  2.07827847  
5.76000000   11.09299951  2.10820833  
5.79000000   11.15669255  2.13795327  
5.82000000   11.22127362  2.16738922  
5.85000000   11.28673154  2.19638838  
5.88000000   11.35305124  2.22481991  
5.91000000   11.42021372  2.25255067  
5.94000000   11.48819593  2.27944617  
5.97000000   11.55697079  2.30537150  
6.00000000   11.62650718  2.33019240  
6.03000000   11.69676997  2.35377643  
6.06000000   11.76772010  2.37599416  
6.09000000   11.83931470  2.39672046  
6.12000000   11.91150721  2.41583573  
6.15000000   11.98424760  2.43322720  
6.18000000   12.05748256  2.44879023  
6.21000000   12.13115577  2.46242949  
6.24000000   12.20520824  2.47406011  
6.27000000   12.27957856  2.48360877  
6.30000000   12.35420333  2.49101458  
6.33000000   12.42901752  2.49622991  
6.36000000   12.50395488  2.49922099  
6.39000000   12.57894834  2.49996836  
6.42000000   12.65393049  2.49846716  
6.45000000   12.72883398  2.49472717  
6.48000000   12.80359197  2.48877268  
6.51000000   12.87813857  2.48064216  
6.54000000   12.95240926  2.47038777  
6.57000000   13.02634125  2.45807467  
6.60000000   13.09987392  2.44378016  
6.63000000   13.17294912  2.42759275  
6.66000000   13.24551154  2.40961101  
6.69000000   13.31750891  2.38994246  
6.72000000   13.38889237  2.36870229  
6.75000000   13.45961655  2.34601210  
6.78000000   13.52963986  2.32199862  
6.81000000   13.59892454  2.29679241  
6.84000000   13.66743681  2.27052666  
6.87000000   13.73514689  2.24333597  
6.90000000   13.80202906  2.21535522  
6.93000000   13.86806164  2.18671856  
6.96000000   13.93322694  2.15755845  
6.99000000   13.99751122  2.12800479  
7.02000000   14.06090456  2.09818420  
7.05000000   14.12340083  2.06821937  
7.08000000   14.18499747  2.03822850  
7.11000000   14.24569541  2.00832490  
7.14000000   14.30549892  1.97861662  
7.17000000   14.36441539  1.94920621  
7.20000000   14.42245524  1.92019056  
7.23000000   14.47963169  1.89166079  
7.26000000   14.53596060  1.86370226  
7.29000000   14.59146033  1.83639457  
7.32000000   14.64615153  1.80981170  
7.35000000   14.70005697  1.78402210  
7.38000000   14.75320142  1.75908889  
7.41000000   14.80561145  1.73507002  
7.44000000   14.85731529  1.71201858  
7.47000000   14.90834272  1.68998292  
7.50000000   14.95872487  1.66900701  
7.53000000   15.00849414  1.64913063  
7.56000000   15.05768406  1.63038965  
7.59000000   15.10632919  1.61281627  
7.62000000   15.15446500  1.59643928  
7.65000000   15.20212777  1.58128432  
7.68000000   15.24935451  1.56737407  
7.71000000   15.29618286  1.55472848  
7.74000000   15.34265104  1.54336498  
7.77000000   15.38879773  1.53329868  
7.80000000   15.43466206  1.52454248  
7.83000000   15.48028349  1.51710729  
7.86000000   15.52570180  1.51100211  
7.89000000   15.57095699  1.50623417  
7.92000000   15.61608928  1.50280900  
7.95000000   15.66113900  1.50073053  
7.98000000   15.70614660  1.50000110  
8.01000000   15.75115257  1.50062155  
8.04000000   15.79619739  1.50259117  
8.07000000   15.84132151  1.50590773  
8.10000000   15.88656528  1.51056744  
8.13000000   15.93196893  1.51656489  
8.16000000   15.97757248  1.52389300  
8.19000000   16.02341573  1.53254292  
8.22000000   16.06953817  1.54250390  
8.25000000   16.11597895  1.55376318  
8.28000000   16.16277679  1.56630587  
8.31000000   16.20996996  1.58011472  
8.34000000   16.25759614  1.59516999  
8.37000000   16.30569240  1.61144922  
8.40000000   16.35429508  1.62892703  
8.43000000   16.40343972  1.64757489  
8.46000000   16.45316096  1.66736087  
8.49000000   16.50349240  1.68824943  
8.52000000   16.55446656  1.71020109  
8.55000000   16.60611467  1.73317226  
8.58000000   16.65846661  1.75711491  
8.61000000   16.71155075  1.78197639  
8.64000000   16.76539381  1.80769912  
8.67000000   16.82002068  1.83422041  
8.70000000   16.87545434  1.86147224  
8.73000000   16.93171559  1.88938110  
8.76000000   16.98882298  1.91786784  
8.79000000   17.04679259  1.94684756  
8.82000000   17.10563786  1.97622962  
8.85000000   17.16536943  2.00591758  
8.88000000   17.22599496  2.03580934  
8.91000000   17.28751896  2.06579730  
8.94000000   17.34994263  2.09576856  
8.97000000   17.41326373  2.12560530  
9.00000000   17.47747638  2.15518516  
9.03000000   17.54257100  2.18438183  
9.06000000   17.60853416  2.21306563  
9.09000000   17.67534849  2.24110430  
9.12000000   17.74299263  2.26836379  
9.15000000   17.81144118  2.29470922  
9.18000000   17.88066470  2.32000595  
9.21000000   17.95062971  2.34412062  
9.24000000   18.02129880  2.36692242  
9.27000000   18.09263066  2.38828425  
9.30000000   18.16458024  2.40808406  
9.33000000   18.23709892  2.42620610  
9.36000000   18.31013474  2.44254217  
9.39000000   18.38363259  2.45699294  
9.42000000   18.45753456  2.46946904  
9.45000000   18.53178020  2.47989224  
9.48000000   18.60630690  2.48819635  
9.51000000   18.68105026  2.49432816  
9.54000000   18.75594447  2.49824804  
9.57000000   18.83092276  2.49993056  
9.60000000   18.90591781  2.49936475  
9.63000000   18.98086220  2.49655431  
9.66000000   19.05568880  2.49151750  
9.69000000   19.13033130  2.48428697  
9.72000000   19.20472455  2.47490924  
9.75000000   19.27880498  2.46344415  
9.78000000   19.35251104  2.44996407  
9.81000000   19.42578351  2.43455296  
9.84000000   19.49856585  2.41730535  
9.87000000   19.57080450  2.39832519  
9.90000000   19.64244916  2.37772461  
9.93000000   19.71345297  2.35562271  
9.96000000   19.78377275  2.33214424  
9.99000000   19.85336914  2.30741833  
10.02000000  19.92220670  2.28157721  
10.05000000  19.99025397  2.25475504  
10.08000000  20.05748354  2.22708671  
10.11000000  20.12387205  2.19870679  
10.14000000  20.18940016  2.16974857  
10.17000000  20.25405250  2.14034310  
10.20000000  20.31781756  2.11061845  
10.23000000  20.38068766  2.08069901  
10.26000000  20.44265876  2.05070492  
10.29000000  20.50373036  2.02075157  
10.32000000  20.56390536  1.99094923  
10.35000000  20.62318988  1.96140277  
10.38000000  20.68159308  1.93221144  
10.41000000  20.73912705  1.90346877  
10.44000000  20.79580657  1.87526252  
10.47000000  20.85164899  1.84767468  
10.50000000  20.90667400  1.82078155  
10.53000000  20.96090354  1.79465386  
10.56000000  21.01436154  1.76935693  
10.59000000  21.06707386  1.74495084  
10.62000000  21.11906806  1.72149066  
10.65000000  21.17037327  1.69902670  
10.68000000  21.22102008  1.67760471  
10.71000000  21.27104038  1.65726619  
10.74000000  21.32046726  1.63804860  
10.77000000  21.36933485  1.61998563  
10.80000000  21.41767825  1.60310748  
10.83000000  21.46553341  1.58744105  
10.86000000  21.51293707  1.57301024  
10.89000000  21.55992660  1.55983610  
10.92000000  21.60653999  1.54793710  
10.95000000  21.65281574  1.53732929  
10.98000000  21.69879279  1.52802646  
11.01000000  21.74451049  1.52004033  
11.04000000  21.79000848  1.51338069  
11.07000000  21.83532668  1.50805549  
11.10000000  21.88050522  1.50407097  
11.13000000  21.92558439  1.50143169  
11.16000000  21.97060460  1.50014067  
11.19000000  22.01560633  1.50019937  
11.22000000  22.06063006  1.50160772  
11.25000000  22.10571627  1.50436412  
11.28000000  22.15090536  1.50846544  
11.31000000  22.19623760  1.51390696  
11.34000000  22.24175311  1.52068229  
11.37000000  22.28749179  1.52878334  
11.40000000  22.33349327  1.53820015  
11.43000000  22.37979684  1.54892083  
11.46000000  22.42644142  1.56093139  
11.49000000  22.47346546  1.57421558  
11.52000000  22.52090691  1.58875472  
11.55000000  22.56880308  1.60452751  
11.58000000  22.61719065  1.62150981  
11.61000000  22.66610550  1.63967444  
11.64000000  22.71558264  1.65899090  
11.67000000  22.76565613  1.67942519  
11.70000000  22.81635895  1.70093949  
11.73000000  22.86772288  1.72349197  
11.76000000  22.91977839  1.74703647  
11.79000000  22.97255449  1.77152229  
11.82000000  23.02607859  1.79689393  
11.85000000  23.08037638  1.82309085  
11.88000000  23.13547164  1.85004728  
11.91000000  23.19138610  1.87769201  
11.94000000  23.24813927  1.90594824  
11.97000000  23.30574829  1.93473350  
12.00000000  23.36422769  1.96395951  
