time         theta        dtheta/dt   
0.00000000   0.00000000   2.05000000  
0.03000000   0.06149078   2.04907786  
0.06000000   0.12292627   2.04631575  
0.09000000   0.18425145   2.04172656  
0.12000000   0.24541180   2.03533160  
0.15000000   0.30635358   2.02716038  
0.18000000   0.36702403   2.01725029  
0.21000000   0.42737165   2.00564617  
0.24000000   0.48734638   1.99239987  
0.27000000   0.54689981   1.97756965  
0.30000000   0.60598536   1.96121965  
0.33000000   0.66455848   1.94341923  
0.36000000   0.72257675   1.92424228  
0.39000000   0.78000003   1.90376654  
0.42000000   0.83679056   1.88207294  
0.45000000   0.89291306   1.85924485  
0.48000000   0.94833476   1.83536744  
0.51000000   1.00302547   1.81052699  
0.54000000   1.05695761   1.78481027  
0.57000000   1.11010619   1.75830395  
0.60000000   1.16244882   1.73109402  
0.63000000   1.21396565   1.70326528  
0.66000000   1.26463938   1.67490091  
0.69000000   1.31445516   1.64608200  
0.72000000   1.36340054   1.61688725  
0.75000000   1.41146539   1.58739261  
0.78000000   1.45864183   1.55767103  
0.81000000   1.50492409   1.52779227  
0.84000000   1.55030846   1.49782271  
0.87000000   1.59479317   1.46782523  
0.90000000   1.63837829   1.43785915  
0.93000000   1.68106559   1.40798016  
0.96000000   1.72285849   1.37824031  
0.99000000   1.76376189   1.34868806  
1.02000000   1.80378210   1.31936830  
1.05000000   1.84292673   1.29032240  
1.08000000   1.88120456   1.26158837  
1.11000000   1.91862549   1.23320089  
1.14000000   1.95520040   1.20519147  
1.17000000   1.99094105   1.17758856  
1.20000000   2.02586003   1.15041772  
1.23000000   2.05997066   1.12370173  
1.26000000   2.09328689   1.09746075  
1.29000000   2.12582323   1.07171249  
1.32000000   2.15759472   1.04647233  
1.35000000   2.18861679   1.02175349  
1.38000000   2.21890525   0.99756717  
1.41000000   2.24847624   0.97392269  
1.44000000   2.27734611   0.95082766  
1.47000000   2.30553145   0.92828806  
1.50000000   2.33304899   0.90630844  
1.53000000   2.35991559   0.88489198  
1.56000000   2.38614816   0.86404066  
1.59000000   2.41176369   0.84375536  
1.62000000   2.43677914   0.82403593  
1.65000000   2.46121149   0.80488137  
1.68000000   2.48507766   0.78628984  
1.71000000   2.50839449   0.76825881  
1.74000000   2.53117876   0.75078513  
1.77000000   2.55344713   0.73386510  
1.80000000   2.57521616   0.71749452  
1.83000000   2.59650225   0.70166884  
1.86000000   2.61732169   0.68638311  
1.89000000   2.63769059   0.67163214  
1.92000000   2.65762491   0.65741049  
1.95000000   2.67714046   0.64371255  
1.98000000   2.69625284   0.63053257  
2.01000000   2.71497753   0.61786472  
2.04000000   2.73332979   0.60570310  
2.07000000   2.75132472   0.59404181  
2.10000000   2.76897724   0.58287497  
2.13000000   2.78630210   0.57219672  
2.16000000   2.80331387   0.56200129  
2.19000000   2.82002695   0.55228301  
2.22000000   2.83645557   0.54303632  
2.25000000   2.85261379   0.53425579  
2.28000000   2.86851553   0.52593618  
2.31000000   2.88417452   0.51807238  
2.34000000   2.89960438   0.51065950  
2.37000000   2.91481855   0.50369284  
2.40000000   2.92983037   0.49716792  
2.43000000   2.94465300   0.49108047  
2.46000000   2.95929953   0.48542647  
2.49000000   2.97378289   0.48020214  
2.52000000   2.98811592   0.47540394  
2.55000000   3.00231135   0.47102860  
2.58000000   3.01638183   0.46707310  
2.61000000   3.03033991   0.46353469  
2.64000000   3.04419806   0.46041092  
2.67000000   3.05796869   0.45769957  
2.70000000   3.07166414   0.45539873  
2.73000000   3.08529670   0.45350678  
2.76000000   3.09887862   0.45202236  
2.79000000   3.11242211   0.45094441  
2.82000000   3.12593934   0.45027216  
2.85000000   3.13944249   0.45000514  
2.88000000   3.15294370   0.45014314  
2.91000000   3.16645513   0.45068627  
2.94000000   3.17998893   0.45163491  
2.97000000   3.19355729   0.45298975  
3.00000000   3.20717239   0.45475176  
3.03000000   3.22084648   0.45692218  
3.06000000   3.23459182   0.45950257  
3.09000000   3.24842075   0.46249475  
3.12000000   3.26234564   0.46590082  
3.15000000   3.27637896   0.46972317  
3.18000000   3.29053322   0.47396447  
3.21000000   3.30482105   0.47862763  
3.24000000   3.31925513   0.48371585  
3.27000000   3.33384828   0.48923258  
3.30000000   3.34861341   0.49518153  
3.33000000   3.36356354   0.50156665  
3.36000000   3.37871181   0.50839212  
3.39000000   3.39407151   0.51566236  
3.42000000   3.40965605   0.52338200  
3.45000000   3.42547897   0.53155587  
3.48000000   3.44155399   0.54018902  
3.51000000   3.45789496   0.54928663  
3.54000000   3.47451589   0.55885410  
3.57000000   3.49143096   0.56889692  
3.60000000   3.50865451   0.57942075  
3.63000000   3.52620107   0.59043133  
3.66000000   3.54408532   0.60193447  
3.69000000   3.56232212   0.61393607  
3.72000000   3.58092653   0.62644203  
3.75000000   3.59991375   0.63945824  
3.78000000   3.61929918   0.65299056  
3.81000000   3.63909840   0.66704477  
3.84000000   3.65932714   0.68162653  
3.87000000   3.68000132   0.69674134  
3.90000000   3.70113701   0.71239447  
3.93000000   3.72275042   0.72859096  
3.96000000   3.74485795   0.74533550  
3.99000000   3.76747608   0.76263240  
4.02000000   3.79062145   0.78048551  
4.05000000   3.81431080   0.79889819  
4.08000000   3.83856097   0.81787317  
4.11000000   3.86338884   0.83741252  
4.14000000   3.88881137   0.85751751  
4.17000000   3.91484555   0.87818857  
4.20000000   3.94150834   0.89942516  
4.23000000   3.96881670   0.92122568  
4.26000000   3.99678750   0.94358733  
4.29000000   4.02543751   0.96650602  
4.32000000   4.05478337   0.98997622  
4.35000000   4.08484153   1.01399087  
4.38000000   4.11562818   1.03854120  
4.41000000   4.14715925   1.06361663  
4.44000000   4.17945031   1.08920461  
4.47000000   4.21251651   1.11529044  
4.50000000   4.24637254   1.14185719  
4.53000000   4.28103256   1.16888548  
4.56000000   4.31651007   1.19635340  
4.59000000   4.35281791   1.22423628  
4.62000000   4.38996812   1.25250661  
4.65000000   4.42797188   1.28113386  
4.68000000   4.46683939   1.31008437  
4.71000000   4.50657980   1.33932123  
4.74000000   4.54720112   1.36880412  
4.77000000   4.58871008   1.39848930  
4.80000000   4.63111203   1.42832945  
4.83000000   4.67441088   1.45827366  
4.86000000   4.71860895   1.48826740  
4.89000000   4.76370684   1.51825251  
4.92000000   4.80970340   1.54816723  
4.95000000   4.85659552   1.57794629  
4.98000000   4.90437813   1.60752099  
5.01000000   4.95304402   1.63681938  
5.04000000   5.00258378   1.66576642  
5.07000000   5.05298571   1.69428428  
5.10000000   5.10423574   1.72229257  
5.13000000   5.15631735   1.74970876  
5.16000000   5.20921150   1.77644849  
5.19000000   5.26289664   1.80242612  
5.22000000   5.31734858   1.82755512  
5.25000000   5.37254059   1.85174869  
5.28000000   5.42844329   1.87492035  
5.31000000   5.48502473   1.89698448  
5.34000000   5.54225044   1.91785707  
5.37000000   5.60008342   1.93745634  
5.40000000   5.65848430   1.95570346  
5.43000000   5.71741136   1.97252324  
5.46000000   5.77682071   1.98784479  
5.49000000   5.83666640   2.00160226  
5.52000000   5.89690060   2.01373543  
5.55000000   5.95747374   2.02419035  
5.58000000   6.01833476   2.03291989  
5.61000000   6.07943128   2.03988424  
5.64000000   6.14070984   2.04505136  
5.67000000   6.20211615   2.04839727  
5.70000000   6.26359531   2.04990640  
5.73000000   6.32509209   2.04957168  
5.76000000   6.38655118   2.04739469  
5.79000000   6.44791745   2.04338558  
5.82000000   6.50913618   2.03756302  
5.85000000   6.57015336   2.02995392  
5.88000000   6.63091590   2.02059321  
5.91000000   6.69137186   2.00952341  
5.94000000   6.75147070   1.99679418  
5.97000000   6.81116348   1.98246181  
6.00000000   6.87040300   1.96658863  
6.03000000   6.92914406   1.94924242  
6.06000000   6.98734354   1.93049567  
6.09000000   7.04496056   1.91042501  
6.12000000   7.10195660   1.88911040  
6.15000000   7.15829557   1.86663452  
6.18000000   7.21394391   1.84308204  
6.21000000   7.26887059   1.81853895  
6.24000000   7.32304720   1.79309194  
6.27000000   7.37644793   1.76682777  
6.30000000   7.42904956   1.73983269  
6.33000000   7.48083144   1.71219195  
6.36000000   7.53177546   1.68398929  
6.39000000   7.58186600   1.65530651  
6.42000000   7.63108985   1.62622311  
6.45000000   7.67943615   1.59681592  
6.48000000   7.72689630   1.56715891  
6.51000000   7.77346389   1.53732285  
6.54000000   7.81913456   1.50737522  
6.57000000   7.86390593   1.47738002  
6.60000000   7.90777749   1.44739772  
6.63000000   7.95075049   1.41748517  
6.66000000   7.99282783   1.38769556  
6.69000000   8.03401395   1.35807852  
6.72000000   8.07431473   1.32868004  
6.75000000   8.11373737   1.29954262  
6.78000000   8.15229029   1.27070533  
6.81000000   8.18998305   1.24220389  
6.84000000   8.22682621   1.21407081  
6.87000000   8.26283127   1.18633550  
6.90000000   8.29801058   1.15902442  
6.93000000   8.33237722   1.13216123  
6.96000000   8.36594494   1.10576691  
6.99000000   8.39872811   1.07985992  
7.02000000   8.43074157   1.05445638  
7.05000000   8.46200066   1.02957016  
7.08000000   8.49252108   1.00521311  
7.11000000   8.52231884   0.98139513  
7.14000000   8.55141026   0.95812435  
7.17000000   8.57981184   0.93540727  
7.20000000   8.60754028   0.91324886  
7.23000000   8.63461240   0.89165274  
7.26000000   8.66104509   0.87062126  
7.29000000   8.68685533   0.85015562  
7.32000000   8.71206009   0.83025601  
7.35000000   8.73667634   0.81092168  
7.38000000   8.76072103   0.79215104  
7.41000000   8.78421102   0.77394179  
7.44000000   8.80716312   0.75629095  
7.47000000   8.82959403   0.73919498  
7.50000000   8.85152033   0.72264986  
7.53000000   8.87295848   0.70665113  
7.56000000   8.89392481   0.69119395  
7.59000000   8.91443548   0.67627322  
7.62000000   8.93450651   0.66188356  
7.65000000   8.95415375   0.64801941  
7.68000000   8.97339288   0.63467507  
7.71000000   8.99223940   0.62184473  
7.74000000   9.01070864   0.60952249  
7.77000000   9.02881577   0.59770247  
7.80000000   9.04657575   0.58637876  
7.83000000   9.06400340   0.57554551  
7.86000000   9.08111333   0.56519690  
7.89000000   9.09792000   0.55532724  
7.92000000   9.11443770   0.54593092  
7.95000000   9.13068054   0.53700248  
7.98000000   9.14666247   0.52853661  
8.01000000   9.16239731   0.52052815  
8.04000000   9.17789869   0.51297216  
8.07000000   9.19318011   0.50586386  
8.10000000   9.20825495   0.49919870  
8.13000000   9.22313642   0.49297234  
8.16000000   9.23783764   0.48718070  
8.19000000   9.25237157   0.48181989  
8.22000000   9.26675110   0.47688632  
8.25000000   9.28098899   0.47237662  
8.28000000   9.29509791   0.46828769  
8.31000000   9.30909043   0.46461671  
8.34000000   9.32297906   0.46136111  
8.37000000   9.33677623   0.45851860  
8.40000000   9.35049429   0.45608719  
8.43000000   9.36414555   0.45406515  
8.46000000   9.37774228   0.45245104  
8.49000000   9.39129668   0.45124372  
8.52000000   9.40482096   0.45044230  
8.55000000   9.41832728   0.45004623  
8.58000000   9.43182779   0.45005522  
8.61000000   9.44533464   0.45046927  
8.64000000   9.45885999   0.45128868  
8.67000000   9.47241602   0.45251404  
8.70000000   9.48601491   0.45414622  
8.73000000   9.49966887   0.45618640  
8.76000000   9.51339018   0.45863601  
8.79000000   9.52719115   0.46149680  
8.82000000   9.54108412   0.46477078  
8.85000000   9.55508155   0.46846026  
8.88000000   9.56919592   0.47256780  
8.91000000   9.58343982   0.47709624  
8.94000000   9.59782593   0.48204870  
8.97000000   9.61236702   0.48742854  
9.00000000   9.62707596   0.49323940  
9.03000000   9.64196573   0.49948513  
9.06000000   9.65704945   0.50616986  
9.09000000   9.67234036   0.51329793  
9.12000000   9.68785181   0.52087391  
9.15000000   9.70359732   0.52890255  
9.18000000   9.71959054   0.53738884  
9.21000000   9.73584528   0.54633793  
9.24000000   9.75237550   0.55575514  
9.27000000   9.76919532   0.56564593  
9.30000000   9.78631904   0.57601592  
9.33000000   9.80376112   0.58687082  
9.36000000   9.82153620   0.59821643  
9.39000000   9.83965908   0.61005861  
9.42000000   9.85814474   0.62240326  
9.45000000   9.87700836   0.63525630  
9.48000000   9.89626526   0.64862358  
9.51000000   9.91593097   0.66251093  
9.54000000   9.93602117   0.67692404  
9.57000000   9.95655173   0.69186846  
9.60000000   9.97753865   0.70734956  
9.63000000   9.99899812   0.72337245  
9.66000000   10.02094646  0.73994192  
9.69000000   10.04340014  0.75706242  
9.72000000   10.06637576  0.77473797  
9.75000000   10.08989001  0.79297208  
9.78000000   10.11395970  0.81176769  
9.81000000   10.13860171  0.83112708  
9.84000000   10.16383298  0.85105180  
9.87000000   10.18967048  0.87154255  
9.90000000   10.21613119  0.89259912  
9.93000000   10.24323207  0.91422025  
9.96000000   10.27099002  0.93640354  
9.99000000   10.29942187  0.95914531  
10.02000000  10.32854428  0.98244052  
10.05000000  10.35837377  1.00628261  
10.08000000  10.38892662  1.03066337  
10.11000000  10.42021886  1.05557280  
10.14000000  10.45226616  1.08099900  
10.17000000  10.48508383  1.10692797  
10.20000000  10.51868670  1.13334351  
10.23000000  10.55308912  1.16022704  
10.26000000  10.58830479  1.18755746  
10.29000000  10.62434680  1.21531100  
10.32000000  10.66122742  1.24346108  
10.35000000  10.69895813  1.27197814  
10.38000000  10.73754945  1.30082953  
10.41000000  10.77701089  1.32997938  
10.44000000  10.81735081  1.35938849  
10.47000000  10.85857637  1.38901419  
10.50000000  10.90069337  1.41881033  
10.53000000  10.94370619  1.44872714  
10.56000000  10.98761767  1.47871124  
10.59000000  11.03242897  1.50870563  
10.62000000  11.07813951  1.53864970  
10.65000000  11.12474681  1.56847927  
10.68000000  11.17224644  1.59812672  
10.71000000  11.22063188  1.62752112  
10.74000000  11.26989444  1.65658840  
10.77000000  11.32002315  1.68525158  
10.80000000  11.37100470  1.71343106  
10.83000000  11.42282336  1.74104493  
10.86000000  11.47546090  1.76800939  
10.89000000  11.52889657  1.79423913  
10.92000000  11.58310704  1.81964787  
10.95000000  11.63806637  1.84414884  
10.98000000  11.69374602  1.86765536  
11.01000000  11.75011488  1.89008149  
11.04000000  11.80713926  1.91134264  
11.07000000  11.86478297  1.93135622  
11.10000000  11.92300736  1.95004241  
11.13000000  11.98177147  1.96732477  
11.16000000  12.04103208  1.98313097  
11.19000000  12.10074389  1.99739348  
11.22000000  12.16085963  2.01005022  
11.25000000  12.22133028  2.02104518  
11.28000000  12.28210523  2.03032901  
11.31000000  12.34313249  2.03785950  
11.34000000  12.40435892  2.04360211  
11.37000000  12.46573047  2.04753025  
11.40000000  12.52719240  2.04962564  
11.43000000  12.58868958  2.04987850  
11.46000000  12.65016667  2.04828766  
11.49000000  12.71156847  2.04486053  
11.52000000  12.77284010  2.03961310  
11.55000000  12.83392729  2.03256967  
11.58000000  12.89477664  2.02376266  
11.61000000  12.95533582  2.01323222  
11.64000000  13.01555381  2.00102578  
11.67000000  13.07538114  1.98719758  
11.70000000  13.13477005  1.97180811  
11.73000000  13.19367468  1.95492346  
11.76000000  13.25205122  1.93661471  
11.79000000  13.30985807  1.91695724  
11.82000000  13.36705595  1.89603002  
11.85000000  13.42360799  1.87391494  
11.88000000  13.47947981  1.85069612  
11.91000000  13.53463958  1.82645919  
11.94000000  13.58905805  1.80129069  
11.97000000  13.64270857  1.77527742  
12.00000000  13.69556711  1.74850586  
