time         theta        dtheta/dt    Uw0^2/mg^2   Kw0^2/mg^2  
0.00000000   3.00000000   -0.00000000  1.99498997   -0.00499748 
0.12500000   2.99889608   -0.01768551  1.99491158   -0.00491908 
0.25000000   2.99556722   -0.03564488  1.99467151   -0.00467901 
0.37500000   2.98996188   -0.05415594  1.99425478   -0.00426228 
0.50000000   2.98199335   -0.07350447  1.99363539   -0.00364290 
0.62500000   2.97153848   -0.09398825  1.99277475   -0.00278225 
0.75000000   2.95843594   -0.11592109  1.99161926   -0.00162677 
0.87500000   2.94248395   -0.13963691  1.99009711   -0.00010462 
1.00000000   2.92343754   -0.16549380  1.98811388   0.00187862  
1.12500000   2.90100525   -0.19387788  1.98554687   0.00444563  
1.25000000   2.87484541   -0.22520696  1.98223783   0.00775467  
1.37500000   2.84456200   -0.25993353  1.97798371   0.01200879  
1.50000000   2.80970013   -0.29854683  1.97252498   0.01746752  
1.62500000   2.76974146   -0.34157333  1.96553114   0.02446136  
1.75000000   2.72409956   -0.38957467  1.95658288   0.03340961  
1.87500000   2.67211590   -0.44314187  1.94515045   0.04484205  
2.00000000   2.61305680   -0.50288403  1.93056796   0.05942454  
2.12500000   2.54611223   -0.56940912  1.91200373   0.07798877  
2.25000000   2.47039777   -0.64329370  1.88842744   0.10156505  
2.37500000   2.38496113   -0.72503791  1.85857607   0.13141642  
2.50000000   2.28879553   -0.81500105  1.82092237   0.16907013  
2.62500000   2.18086251   -0.91331352  1.77365256   0.21633994  
2.75000000   2.06012749   -1.01976159  1.71466361   0.27532889  
2.87500000   1.92561140   -1.13364504  1.64159493   0.34839756  
3.00000000   1.77646153   -1.25361406  1.55191391   0.43807859  
3.12500000   1.61204322   -1.37750303  1.44307671   0.54691579  
3.25000000   1.43205093   -1.50219384  1.31278279   0.67720971  
3.37500000   1.23663200   -1.62355926  1.15932753   0.83066497  
3.50000000   1.02650919   -1.73654880  0.98203017   1.00796232  
3.62500000   0.80308053   -1.83547600  0.78167311   1.20831938  
3.75000000   0.56846890   -1.91453321  0.56084540   1.42914709  
3.87500000   0.32549479   -1.96849441  0.32405981   1.66593269  
4.00000000   0.07755533   -1.99348268  0.07753589   1.91245660  
4.12500000   -0.17158693  -1.98761543  -0.17137651  2.16136901  
4.25000000   -0.41807832  -1.95133971  -0.41504014  2.40503264  
4.37500000   -0.65826465  -1.88735132  -0.64644410  2.63643660  
4.50000000   -0.88894637  -1.80012384  -0.85996462  2.84995712  
4.62500000   -1.10755759  -1.69519341  -1.05181001  3.04180251  
4.75000000   -1.31225078  -1.57839615  -1.22010269  3.21009519  
4.87500000   -1.50189222  -1.45522650  -1.36466143  3.35465393  
5.00000000   -1.67599009  -1.33040793  -1.48660678  3.47659928  
5.12500000   -1.83458303  -1.20768735  -1.58791570  3.57790820  
5.25000000   -1.97811503  -1.08981070  -1.67101695  3.66100945  
5.37500000   -2.10731520  -0.97861678  -1.73847467  3.72846717  
5.50000000   -2.22309367  -0.87519005  -1.79277086  3.78276336  
5.62500000   -2.32645770  -0.78002862  -1.83617547  3.82616797  
5.75000000   -2.41844846  -0.69320085  -1.87068372  3.86067621  
5.87500000   -2.50009587  -0.61447784  -1.89799947  3.88799196  
6.00000000   -2.57238822  -0.54343809  -1.91954683  3.90953933  
6.12500000   -2.63625330  -0.47954615  -1.93649696  3.92648946  
6.25000000   -2.69254790  -0.42220920  -1.94980111  3.93979361  
6.37500000   -2.74205324  -0.37081596  -1.96022461  3.95021710  
6.50000000   -2.78547435  -0.32476240  -1.96837862  3.95837111  
6.62500000   -2.82344207  -0.28346759  -1.97474837  3.96474087  
6.75000000   -2.85651661  -0.24638274  -1.97971729  3.96970978  
6.87500000   -2.88519177  -0.21299538  -1.98358714  3.97357964  
7.00000000   -2.90989966  -0.18283031  -1.98659459  3.97658709  
7.12500000   -2.93101527  -0.15544843  -1.98892453  3.97891702  
7.25000000   -2.94886080  -0.13044431  -1.99072079  3.98071329  
7.37500000   -2.96370975  -0.10744287  -1.99209463  3.98208713  
7.50000000   -2.97579041  -0.08609563  -1.99313134  3.98312384  
7.62500000   -2.98528898  -0.06607672  -1.99389540  3.98388790  
7.75000000   -2.99235212  -0.04707889  -1.99443440  3.98442690  
7.87500000   -2.99708903  -0.02880935  -1.99478195  3.98477444  
8.00000000   -2.99957303  -0.01098581  -1.99495973  3.98495222  
8.12500000   -2.99984257  0.00666760   -1.99497883  3.98497133  
8.25000000   -2.99790183  0.02442427   -1.99484046  3.98483295  
8.37500000   -2.99372076  0.04255909   -1.99453597  3.98452846  
8.50000000   -2.98723463  0.06135243   -1.99404636  3.98403885  
8.62500000   -2.97834315  0.08109413   -1.99334110  3.98333360  
8.75000000   -2.96690897  0.10208755   -1.99237625  3.98236875  
8.87500000   -2.95275577  0.12465361   -1.99109178  3.98108428  
9.00000000   -2.93566580  0.14913490   -1.98940790  3.97940039  
9.12500000   -2.91537694  0.17589965   -1.98722025  3.97721274  
9.25000000   -2.89157922  0.20534555   -1.98439366  3.97438616  
9.37500000   -2.86391095  0.23790320   -1.98075416  3.97074666  
9.50000000   -2.83195439  0.27403882   -1.97607887  3.96607137  
9.62500000   -2.79523124  0.31425576   -1.97008333  3.96007582  
9.75000000   -2.75319794  0.35909419   -1.96240576  3.95239825  
9.87500000   -2.70524126  0.40912778   -1.95258789  3.94258038  
10.00000000  -2.65067456  0.46495610   -1.94005176  3.93004425  
10.12500000  -2.58873530  0.52719058   -1.92407253  3.91406502  
10.25000000  -2.51858492  0.59643159   -1.90374745  3.89373995  
10.37500000  -2.43931225  0.67323305   -1.87796226  3.86795476  
10.50000000  -2.34994242  0.75805064   -1.84535748  3.83534997  
10.62500000  -2.24945336  0.85116895   -1.80429942  3.79429192  
10.75000000  -2.13680313  0.95260340   -1.75286387  3.74285637  
10.87500000  -2.01097106  1.06197453   -1.68884431  3.67883681  
11.00000000  -1.87101639  1.17835654   -1.60980150  3.59979399  
11.12500000  -1.71615689  1.30011023   -1.51317494  3.50316743  
11.25000000  -1.54586831  1.42472308   -1.39647740  3.38646990  
11.37500000  -1.36000136  1.54869612   -1.25758711  3.24757960  
11.50000000  -1.15890707  1.66753338   -1.09513351  3.08512601  
11.62500000  -0.94355368  1.77589808   -0.90893949  2.89893199  
11.75000000  -0.71561091  1.86798558   -0.70043904  2.69043154  
11.87500000  -0.47747328  1.93811835   -0.47295058  2.46294307  
12.00000000  -0.23219857  1.98149202   -0.23167728  2.22166978  
12.12500000  0.01664894   1.99492050   0.01664874   1.97334375  
12.25000000  0.26523799   1.97738344   0.26446118   1.72553132  
12.37500000  0.50975696   1.93021016   0.50425564   1.48573686  
12.50000000  0.74669688   1.85684081   0.72947048   1.26052202  
12.62500000  0.97308152   1.76224144   0.93514175   1.05485074  
12.75000000  1.18661162   1.65214763   1.11820982   0.87178268  
12.87500000  1.38571410   1.53233146   1.27747614   0.71251635  
13.00000000  1.56950901   1.40803396   1.41330300   0.57668950  
13.12500000  1.73771928   1.28362272   1.52718621   0.46280629  
13.25000000  1.89055148   1.16246150   1.62131683   0.36867567  
13.37500000  2.02857075   1.04693813   1.69820657   0.29178593  
13.50000000  2.15258580   0.93858682   1.76040898   0.22958352  
13.62500000  2.26355216   0.83825093   1.81033709   0.17965541  
13.75000000  2.36249630   0.74624893   1.85016149   0.13983101  
13.87500000  2.45045957   0.66252280   1.88176740   0.10822510  
14.00000000  2.52845902   0.58676001   1.90675056   0.08324194  
14.12500000  2.59746181   0.51848807   1.92643586   0.06355664  
14.25000000  2.65836977   0.45714427   1.94190734   0.04808516  
14.37500000  2.71201141   0.40212501   1.95404209   0.03595041  
14.50000000  2.75913906   0.35281934   1.96354361   0.02644889  
14.62500000  2.80042941   0.30863051   1.97097240   0.01902010  
14.75000000  2.83648612   0.26898900   1.97677260   0.01321990  
14.87500000  2.86784377   0.23335945   1.98129462   0.00869788  
15.00000000  2.89497232   0.20124347   1.98481386   0.00517864  
15.12500000  2.91828176   0.17217973   1.98754601   0.00244649  
15.25000000  2.93812664   0.14574221   1.98965932   0.00033318  
15.37500000  2.95481030   0.12153735   1.99128443   -0.00129193 
15.50000000  2.96858878   0.09920059   1.99252208   -0.00252958 
15.62500000  2.97967411   0.07839245   1.99344918   -0.00345668 
15.75000000  2.98823729   0.05879460   1.99412341   -0.00413092 
15.87500000  2.99441062   0.04010570   1.99458681   -0.00459431 
16.00000000  2.99828957   0.02203743   1.99486825   -0.00487576 
16.12500000  2.99993419   0.00431038   1.99498532   -0.00499282 
16.25000000  2.99936994   -0.01334992  1.99494531   -0.00495281 
16.37500000  2.99658810   -0.03121695  1.99474572   -0.00475323 
16.50000000  2.99154558   -0.04956721  1.99437411   -0.00438161 
16.62500000  2.98416436   -0.06868418  1.99380728   -0.00381479 
16.75000000  2.97433034   -0.08886231  1.99300991   -0.00301741 
16.87500000  2.96189170   -0.11041114  1.99193232   -0.00193982 
17.00000000  2.94665678   -0.13365929  1.99050752   -0.00051502 
17.12500000  2.92839145   -0.15895858  1.98864707   0.00134543  
17.25000000  2.90681593   -0.18668793  1.98623579   0.00375671  
17.37500000  2.88160119   -0.21725710  1.98312489   0.00686760  
17.50000000  2.85236489   -0.25110987  1.97912325   0.01086925  
17.62500000  2.81866695   -0.28872640  1.97398634   0.01600616  
17.75000000  2.78000496   -0.33062413  1.96740252   0.02258998  
17.87500000  2.73580952   -0.37735646  1.95897603   0.03101646  
18.00000000  2.68544007   -0.42950805  1.94820631   0.04178619  
18.12500000  2.62818146   -0.48768500  1.93446332   0.05552918  
18.25000000  2.56324229   -0.55249786  1.91695882   0.07303368  
18.37500000  2.48975592   -0.62453439  1.89471417   0.09527833  
18.50000000  2.40678571   -0.70431853  1.86652629   0.12346620  
18.62500000  2.31333649   -0.79225114  1.83093504   0.15905745  
18.75000000  2.20837481   -0.88852810  1.78619787   0.20379463  
18.87500000  2.09086106   -0.99303191  1.73028108   0.25971141  
19.00000000  1.95979683   -1.10519565  1.66088156   0.32911093  
19.12500000  1.81429088   -1.22384389  1.57549710   0.41449540  
19.25000000  1.65364570   -1.34702477  1.47156694   0.51842556  
19.37500000  1.47746424   -1.47186218  1.34670216   0.64329033  
19.50000000  1.28577152   -1.59447405  1.19901522   0.79097728  
19.62500000  1.07913920   -1.71001747  1.02753357   0.96245892  
19.75000000  0.85879335   -1.81292247  0.83264465   1.15734785  
19.87500000  0.62667893   -1.89735191  0.61647443   1.37351807  
20.00000000  0.38545345   -1.95786646  0.38307169   1.60692080  
20.12500000  0.13838949   -1.99019192  0.13827909   1.85171341  
20.25000000  -0.11081610  -1.99191299  -0.11075941  2.10075191  
20.37500000  -0.35830483  -1.96289844  -0.35639123  2.34638373  
20.50000000  -0.60034804  -1.90532493  -0.59137289  2.58136539  
20.62500000  -0.83361515  -1.82329159  -0.80968683  2.79967932  
20.75000000  -1.05537397  -1.72214684  -1.00707261  2.99706511  
20.87500000  -1.26359874  -1.60771957  -1.18119549  3.17118798  
21.00000000  -1.45698586  -1.48563618  -1.33149169  3.32148419  
21.12500000  -1.63489591  -1.36083562  -1.45880479  3.44879728  
21.25000000  -1.79724937  -1.23731156  -1.56494252  3.55493502  
21.37500000  -1.94440269  -1.11804929  -1.65225627  3.64224876  
21.50000000  -2.07702570  -1.00509652  -1.72330090  3.71329339  
21.62500000  -2.19599281  -0.89970650  -1.78059350  3.77058599  
21.75000000  -2.30229417  -0.80250540  -1.82646382  3.81645632  
21.87500000  -2.39696748  -0.71365331  -1.86297717  3.85296967  
22.00000000  -2.48104871  -0.63298323  -1.89190836  3.88190085  
22.12500000  -2.55553844  -0.56011251  -1.91474776  3.90474025  
22.25000000  -2.62138050  -0.49452755  -1.93272541  3.92271790  
22.37500000  -2.67944965  -0.43564536  -1.94684311  3.93683561  
22.50000000  -2.73054572  -0.38285635  -1.95790858  3.94790108  
22.62500000  -2.77539227  -0.33555293  -1.96656788  3.95656038  
22.75000000  -2.81463799  -0.29314747  -1.97333463  3.96332712  
22.87500000  -2.84885996  -0.25508281  -1.97861511  3.96860761  
23.00000000  -2.87856778  -0.22083739  -1.98272939  3.97272189  
23.12500000  -2.90420821  -0.18992694  -1.98592869  3.97592118  
23.25000000  -2.92616977  -0.16190375  -1.98840946  3.97840195  
23.37500000  -2.94478718  -0.13635444  -1.99032471  3.98031721  
23.50000000  -2.96034549  -0.11289684  -1.99179299  3.98178548  
23.62500000  -2.97308373  -0.09117632  -1.99290538  3.98289788  
23.75000000  -2.98319813  -0.07086189  -1.99373107  3.98372357  
23.87500000  -2.99084480  -0.05164211  -1.99432146  3.98431396  
24.00000000  -2.99614192  -0.03322103  -1.99471335  3.98470585  
24.12500000  -2.99917147  -0.01531418  -1.99493119  3.98492369  
24.25000000  -2.99998034  0.00235553   -1.99498858  3.98498108  
24.37500000  -2.99858107  0.02006172   -1.99488910  3.98488160  
24.50000000  -2.99495197  0.03807855   -1.99462654  3.98461903  
24.62500000  -2.98903689  0.05668468   -1.99418450  3.98417700  
24.75000000  -2.98074430  0.07616727   -1.99353544  3.98352793  
24.87500000  -2.96994609  0.09682599   -1.99263888  3.98263138  
25.00000000  -2.95647565  0.11897710   -1.99143904  3.98143153  
25.12500000  -2.94012562  0.14295753   -1.98986134  3.97985383  
25.25000000  -2.92064502  0.16912887   -1.98780794  3.97780044  
25.37500000  -2.89773591  0.19788129   -1.98515188  3.97514438  
25.50000000  -2.87104961  0.22963706   -1.98172950  3.97172200  
25.62500000  -2.84018250  0.26485349   -1.97733093  3.96732343  
25.75000000  -2.80467150  0.30402482   -1.97168808  3.96168058  
25.87500000  -2.76398942  0.34768239   -1.96445971  3.95445221  
26.00000000  -2.71754043  0.39639219   -1.95521309  3.94520559  
26.12500000  -2.66465612  0.45074847   -1.94340187  3.93339436  
26.25000000  -2.60459261  0.51136150   -1.92833981  3.91833230  
26.37500000  -2.53652976  0.57883706   -1.90917067  3.89916317  
26.50000000  -2.45957357  0.65374452   -1.88483503  3.87482753  
26.62500000  -2.37276354  0.73656938   -1.85403628  3.84402878  
26.75000000  -2.27508707  0.82764607   -1.81520990  3.80520240  
26.87500000  -2.16550387  0.92706630   -1.76650306  3.75649556  
27.00000000  -2.04298339  1.03456018   -1.70577555  3.69576805  
27.12500000  -1.90655888  1.14935048   -1.63063744  3.62062994  
27.25000000  -1.75540098  1.26998786   -1.53854341  3.52853591  
27.37500000  -1.58891218  1.39418624   -1.42696522  3.41695771  
27.50000000  -1.40684012  1.51869360   -1.29365944  3.28365194  
27.62500000  -1.20940210  1.63925058   -1.13703233  3.12702482  
27.75000000  -0.99740610  1.75070025   -0.95657391  2.94656641  
27.87500000  -0.77234548  1.84730529   -0.75329155  2.74328404  
28.00000000  -0.53643981  1.92329205   -0.53003082  2.52002332  
28.12500000  -0.29259567  1.97357083   -0.29155305  2.28154554  
28.25000000  -0.04427298  1.99449874   -0.04426936  2.03426186  
28.37500000  0.20473680   1.98449340   0.20437941   1.78561309  
28.50000000  0.45059008   1.94431622   0.44678791   1.54320458  
28.62500000  0.68967996   1.87693484   0.67609216   1.31390033  
28.75000000  0.91888311   1.78700916   0.88689529   1.10309721  
28.87500000  1.13572678   1.68015831   1.07566401   0.91432849  
29.00000000  1.33846073   1.56220580   1.24076509   0.74922740  
29.12500000  1.52604229   1.43856289   1.38221627   0.60777623  
29.25000000  1.69805744   1.31382998   1.50127804   0.48871445  
29.37500000  1.85460624   1.19161850   1.60000948   0.38998301  
29.50000000  1.99617743   1.07454599   1.68087355   0.30911894  
29.62500000  2.12352991   0.96434100   1.74643392   0.24355858  
29.75000000  2.23759113   0.86200000   1.79915008   0.19084242  
29.87500000  2.33937614   0.76795511   1.84125771   0.14873479  
30.00000000  2.42992686   0.68222795   1.87471332   0.11527918  
30.12500000  2.51026911   0.60455844   1.90118229   0.08881021  
30.25000000  2.58138399   0.53450584   1.92205320   0.06793930  
30.37500000  2.64419026   0.47152420   1.93846587   0.05152663  
30.50000000  2.69953480   0.41501632   1.95134478   0.03864772  
30.62500000  2.74818859   0.36437064   1.96143290   0.02855959  
30.75000000  2.79084661   0.31898546   1.96932305   0.02066945  
30.87500000  2.82813005   0.27828378   1.97548554   0.01450695  
31.00000000  2.86058998   0.24172148   1.98029183   0.00970067  
31.12500000  2.88871170   0.20879107   1.98403409   0.00595840  
31.25000000  2.91291943   0.17902226   1.98694137   0.00305112  
31.37500000  2.93358085   0.15198063   1.98919252   0.00079998  
31.50000000  2.95101146   0.12726501   1.99092657   -0.00093407 
31.62500000  2.96547851   0.10450407   1.99225096   -0.00225846 
31.75000000  2.97720451   0.08335260   1.99324794   -0.00325544 
31.87500000  2.98637023   0.06348745   1.99397952   -0.00398703 
32.00000000  2.99311723   0.04460353   1.99449129   -0.00449880 
32.12500000  2.99754985   0.02640970   1.99481516   -0.00482266 
32.25000000  2.99973669   0.00862474   1.99497133   -0.00497883 
32.37500000  2.99971160   -0.00902665  1.99496955   -0.00497706 
32.50000000  2.99747420   -0.02681783  1.99480971   -0.00481722 
32.62500000  2.99298985   -0.04502420  1.99448184   -0.00448934 
32.75000000  2.98618914   -0.06392715  1.99396547   -0.00397298 
32.87500000  2.97696691   -0.08381810  1.99322842   -0.00323592 
33.00000000  2.96518075   -0.10500251  1.99222475   -0.00223226 
33.12500000  2.95064894   -0.12780397  1.99089205   -0.00089955 
33.25000000  2.93314801   -0.15256826  1.98914754   0.00084496  
33.37500000  2.91240964   -0.17966732  1.98688315   0.00310935  
33.50000000  2.88811719   -0.20950306  1.98395904   0.00603346  
33.62500000  2.85990176   -0.24251070  1.98019533   0.00979716  
33.75000000  2.82733778   -0.27916135  1.97536172   0.01463077  
33.87500000  2.78993850   -0.31996336  1.96916440   0.02082809  
34.00000000  2.74715131   -0.36546163  1.96122992   0.02876258  
34.12500000  2.69835338   -0.41623386  1.95108543   0.03890706  
34.25000000  2.64284802   -0.47288216  1.93813504   0.05185745  
34.37500000  2.57986250   -0.53601807  1.92163202   0.06836048  
34.50000000  2.50854826   -0.60623810  1.90064735   0.08934514  
34.62500000  2.42798498   -0.68408647  1.87403594   0.11595656  
34.75000000  2.33719032   -0.77000074  1.84040318   0.14958932  
34.87500000  2.23513771   -0.86423582  1.79807715   0.19191535  
35.00000000  2.12078532   -0.96676228  1.74509475   0.24489775  
35.12500000  1.99311934   -1.07713697  1.67921438   0.31077811  
35.25000000  1.85121518   -1.19434864  1.59797257   0.39201993  
35.37500000  1.69431886   -1.31665017  1.49880529   0.49118720  
35.50000000  1.52194912   -1.44140229  1.37925503   0.61073747  
35.62500000  1.33401621   -1.56497048  1.23727620   0.75271629  
35.75000000  1.13094725   -1.68273314  1.07163155   0.91836095  
35.87500000  0.91380031   -1.78926435  0.88233671   1.10765579  
36.00000000  0.68434219   -1.87873764  0.67106623   1.31892627  
36.12500000  0.44506159   -1.94554704  0.44139744   1.54859506  
36.25000000  0.19909504   -1.98506345  0.19876638   1.79122612  
36.37500000  -0.04994217  -1.99436488  -0.04993698  2.03992948  
36.50000000  -0.29820439  -1.97274331  -0.29710070  2.28709320  
36.62500000  -0.54190472  -1.92183263  -0.53529834  2.52529084  
36.75000000  -0.77759364  -1.84531640  -0.75815062  2.74814311  
36.87500000  -1.00237909  -1.74830852  -0.96093824  2.95093074  
37.00000000  -1.21405791  -1.63658936  -1.14085944  3.13085194  
37.12500000  -1.41115303  -1.51588822  -1.29694561  3.28693810  
37.25000000  -1.59287113  -1.39134430  -1.42973635  3.41972884  
37.37500000  -1.75900696  -1.26719459  -1.54084485  3.53083735  
37.50000000  -1.90982211  -1.14666823  -1.63252472  3.62251722  
37.62500000  -2.04592054  -1.03203061  -1.70730718  3.69729968  
37.75000000  -2.16813572  -0.92471391  -1.76773561  3.75772810  
37.87500000  -2.27743659  -0.82548204  -1.81619503  3.80618753  
38.00000000  -2.37485443  -0.73459514  -1.85481939  3.84481189  
38.12500000  -2.46142930  -0.65195475  -1.88545485  3.87544735  
