  time        theta
0.00000000   2.50000000
0.16722408   2.49161658
0.33444816   2.46627935
0.50167224   2.42343064
0.66889632   2.36215353
0.83612040   2.28119691
1.00334448   2.17902349
1.17056856   2.05389539
1.33779264   1.90401591
1.50501672   1.72774926
1.67224080   1.52393559
1.83946488   1.29230212
2.00668896   1.03393376
2.17391304   0.75171016
2.34113712   0.45055778
2.50836120   0.13734894
2.67558528  -0.17964827
2.84280936  -0.49170126
3.01003344  -0.79068117
3.17725753  -1.06995405
3.34448161  -1.32487058
3.51170569  -1.55281159
3.67892977  -1.75290113
3.84615385  -1.92555727
4.01337793  -2.07202536
4.18060201  -2.19397878
4.34782609  -2.29321716
4.51505017  -2.37145833
4.68227425  -2.43020524
4.84949833  -2.47066648
5.01672241  -2.49371200
5.18394649  -2.49985032
5.35117057  -2.48921845
5.51839465  -2.46157951
5.68561873  -2.41632690
5.85284281  -2.35249715
6.02006689  -2.26879744
6.18729097  -2.16365770
6.35451505  -2.03532247
6.52173913  -1.88200189
6.68896321  -1.70210336
6.85618729  -1.49455998
7.02341137  -1.25925279
7.19063545  -0.99748370
7.35785953  -0.71239762
7.52508361  -0.40919651
7.69230769  -0.09498113
7.85953177   0.22185825
8.02675585   0.53260863
8.19397993   0.82929668
8.36120401   1.10553563
8.52842809   1.35695394
8.69565217   1.58118751
8.86287625   1.77756111
9.03010033   1.94662959
9.19732441   2.08971667
9.36454849   2.20852790
9.53177258   2.30486216
9.69899666   2.38041487
9.86622074   2.43665326
10.03344482   2.47474263
10.20066890   2.49550553
10.36789298   2.49940121
10.53511706   2.48651666
10.70234114   2.45656514
10.86956522   2.40889135
11.03678930   2.34248577
11.20401338   2.25601476
11.37123746   2.14787708
11.53846154   2.01630236
11.70568562   1.85951171
11.87290970   1.67596159
12.04013378   1.46468567
12.20735786   1.22572739
12.37458194   0.96061348
12.54180602   0.67275818
12.70903010   0.36763627
12.87625418   0.05256589
13.04347826  -0.26395818
13.21070234  -0.57326206
13.37792642  -0.86754338
13.54515050  -1.14067024
13.71237458  -1.38854854
13.87959866  -1.60906329
14.04682274  -1.80173156
14.21404682  -1.96723663
14.38127090  -2.10697363
14.54849498  -2.22267514
14.71571906  -2.31613578
14.88294314  -2.38902637
15.05016722  -2.44277715
15.21739130  -2.47850938
15.38461538  -2.49699791
15.55183946  -2.49865251
15.71906355  -2.48351013
15.88628763  -2.45123429
16.05351171  -2.40112122
16.22073579  -2.33211587
16.38795987  -2.24284479
16.55518395  -2.13167726
16.72240803  -1.99683088
16.88963211  -1.83654205
17.05685619  -1.64932242
17.22408027  -1.43431401
17.39130435  -1.19173133
17.55852843  -0.92333338
17.72575251  -0.63280710
17.89297659  -0.32589628
18.06020067  -0.01012438
18.22742475   0.30592764
18.39464883   0.61364424
18.56187291   0.90540861
18.72909699   1.17535028
18.89632107   1.41965127
19.06354515   1.63643927
19.23076923   1.82541511
19.39799331   1.98738229
19.56521739   2.12380060
19.73244147   2.23642474
19.89966555   2.32704182
20.06688963   2.39729598
20.23411371   2.44857926
20.40133779   2.48196824
20.56856187   2.49818972
20.73578595   2.49760390
20.90301003   2.48019766
21.07023411   2.44558490
21.23745819   2.39301364
21.40468227   2.32138386
21.57190635   2.22928338
21.73913043   2.11505389
21.90635452   1.97690393
22.07357860   1.81308977
22.24080268   1.62218463
22.40802676   1.40344685
22.57525084   1.15727064
22.74247492   0.88565438
22.90969900   0.59256025
23.07692308   0.28399619
23.24414716  -0.03232220
23.41137124  -0.34774647
23.57859532  -0.65373842
23.74581940  -0.94288041
23.91304348  -1.20956877
24.08026756  -1.45025956
24.24749164  -1.66331617
24.41471572  -1.84861461
24.58193980  -2.00707053
24.74916388  -2.14020192
24.91638796  -2.24978092
25.08361204  -2.33758400
25.25083612  -2.40522671
25.41806020  -2.45406179
25.58528428  -2.48512055
25.75250836  -2.49908145
25.91973244  -2.49625496
26.08695652  -2.47657796
26.25418060  -2.43961480
26.42140468  -2.38456561
26.58862876  -2.31028605
26.75585284  -2.21532635
26.92307692  -2.09800259
27.09030100  -1.95651747
27.25752508  -1.78915192
27.42474916  -1.59454733
27.59197324  -1.37208652
27.75919732  -1.12235196
27.92642140  -0.84758811
28.09364548  -0.55203409
28.26086957  -0.24195596
28.42809365   0.07475261
28.59531773   0.38939488
28.76254181   0.69352847
28.92976589   0.97994747
29.09698997   1.24331939
29.26421405   1.48037132
29.43143813   1.68969504
29.59866221   1.87133311
29.76588629   2.02630544
29.93311037   2.15618196
30.10033445   2.26274784
30.26755853   2.34776597
30.43478261   2.41282151
30.60200669   2.45922688
30.76923077   2.48796757
30.93645485   2.49967344
31.10367893   2.49460517
31.27090301   2.47264960
31.43812709   2.43332169
31.60535117   2.37577406
31.77257525   2.29881869
31.93979933   2.20096948
32.10702341   2.08051901
32.27424749   1.93566757
32.44147157   1.76472578
32.60869565   1.56641000
32.77591973   1.34023589
32.94314381   1.08698260
33.11036789   0.80914692
33.27759197   0.51124566
33.44481605   0.19979591
33.61204013  -0.11714568
33.77926421  -0.43085344
33.94648829  -0.73299881
34.11371237  -1.01659920
34.28093645  -1.27659646
34.44816054  -1.50998496
34.61538462  -1.71557726
34.78260870  -1.89357385
34.94983278  -2.04509115
35.11705686  -2.17174509
35.28428094  -2.27532960
35.45150502  -2.35759126
35.61872910  -2.42008319
35.78595318  -2.46407652
35.95317726  -2.49051043
36.12040134  -2.49996594
36.28762542  -2.49265385
36.45484950  -2.46841102
36.62207358  -2.42670319
36.78929766  -2.36663580
36.95652174  -2.28697793
37.12374582  -2.18620848
37.29096990  -2.06259883
37.45819398  -1.91435042
37.62541806  -1.73980883
37.79264214  -1.53777252
37.95986622  -1.30789835
38.12709030  -1.05117052
38.29431438  -0.77034378
38.46153846  -0.47021255
38.62876254  -0.15753661
38.79598662   0.15948030
38.96321070   0.47210312
39.13043478   0.77213452
39.29765886   1.05282566
39.46488294   1.30939487
39.63210702   1.53909937
39.79933110   1.74096455
39.96655518   1.91534024
40.13377926   2.06343189
40.30100334   2.18689566
40.46822742   2.28753025
40.63545151   2.36706335
40.80267559   2.42701448
40.96989967   2.46861260
41.13712375   2.49275013
41.30434783   2.49995906
41.47157191   2.49040024
41.63879599   2.46386057
41.80602007   2.41975678
41.97324415   2.35714756
42.14046823   2.27475985
42.30769231   2.17103905
42.47491639   2.04423774
42.64214047   1.89256232
42.80936455   1.71439884
42.97658863   1.50863515
43.14381271   1.27507784
43.31103679   1.01492431
43.47826087   0.73119237
43.64548495   0.42895286
43.81270903   0.11519885
43.97993311  -0.20173549
44.14715719  -0.51312538
44.31438127  -0.81092132
44.48160535  -1.08861759
44.64882943  -1.34171012
44.81605351  -1.56771387
44.98327759  -1.76585889
45.15050167  -1.93663583
45.31772575  -2.08133192
45.48494983  -2.20163800
45.65217391  -2.29935376
45.81939799  -2.37618561
45.98662207  -2.43361797
46.15384615  -2.47283689
46.32107023  -2.49468758
46.48829431  -2.49965281
46.65551839  -2.48784343
46.82274247  -2.45899648
46.98996656  -2.41247985
47.15719064  -2.34730595
47.32441472  -2.26216048
47.49163880  -2.15545685
47.65886288  -2.02543147
47.82608696  -1.87029970
47.99331104  -1.68849383
48.16053512  -1.47899859
48.32775920  -1.24177890
48.49498328  -0.97825327
48.66220736  -0.69170701
48.82943144  -0.38748516
48.99665552  -0.07280360
49.16387960   0.24389048
49.33110368   0.55390214
49.49832776   0.84934557
49.66555184   1.12396640
49.83277592   1.37353830
50.00000000   1.59582821
