time         theta        dtheta/dt    Uw0^2/mg^2   Kw0^2/mg^2  
0.00000000   0.00000000   2.50000000   0.00000000   3.12500000  
0.03000000   0.07498875   2.49887561   0.00281034   3.12218966  
0.06000000   0.14991012   2.49550977   0.01121549   3.11378451  
0.09000000   0.22469714   2.48992435   0.02513837   3.09986163  
0.12000000   0.29928374   2.48215548   0.04445209   3.08054791  
0.15000000   0.37360513   2.47225307   0.06898238   3.05601762  
0.18000000   0.44759821   2.46028015   0.09851080   3.02648920  
0.21000000   0.52120198   2.44631205   0.13277869   2.99222131  
0.24000000   0.59435785   2.43043546   0.17149174   2.95350826  
0.27000000   0.66700999   2.41274736   0.21432509   2.91067491  
0.30000000   0.73910563   2.39335385   0.26092868   2.86407132  
0.33000000   0.81059531   2.37236892   0.31093286   2.81406714  
0.36000000   0.88143306   2.34991318   0.36395402   2.76104598  
0.39000000   0.95157665   2.32611259   0.41960010   2.70539990  
0.42000000   1.02098766   2.30109717   0.47747590   2.64752410  
0.45000000   1.08963166   2.27499974   0.53718808   2.58781192  
0.48000000   1.15747817   2.24795475   0.59834972   2.52665028  
0.51000000   1.22450081   2.22009710   0.66058443   2.46441557  
0.54000000   1.29067722   2.19156114   0.72352988   2.40147012  
0.57000000   1.35598903   2.16247967   0.78684084   2.33815916  
0.60000000   1.42042185   2.13298307   0.85019160   2.27480840  
0.63000000   1.48396514   2.10319857   0.91327788   2.21172212  
0.66000000   1.54661212   2.07324955   0.97581815   2.14918185  
0.69000000   1.60835965   2.04325500   1.03755450   2.08744550  
0.72000000   1.66920811   2.01332908   1.09825301   2.02674699  
0.75000000   1.72916118   1.98358074   1.15770373   1.96729627  
0.78000000   1.78822576   1.95411346   1.21572030   1.90927970  
0.81000000   1.84641178   1.92502509   1.27213921   1.85286079  
0.84000000   1.90373198   1.89640772   1.32681888   1.79818112  
0.87000000   1.96020181   1.86834768   1.37963848   1.74536152  
0.90000000   2.01583922   1.84092553   1.43049660   1.69450340  
0.93000000   2.07066448   1.81421618   1.47930982   1.64569018  
0.96000000   2.12470002   1.78828900   1.52601123   1.59898877  
0.99000000   2.17797028   1.76320798   1.57054881   1.55445119  
1.02000000   2.23050155   1.73903194   1.61288395   1.51211605  
1.05000000   2.28232179   1.71581476   1.65298986   1.47201014  
1.08000000   2.33346051   1.69360556   1.69085010   1.43414990  
1.11000000   2.38394865   1.67244905   1.72645709   1.39854291  
1.14000000   2.43381839   1.65238567   1.75981081   1.36518919  
1.17000000   2.48310309   1.63345193   1.79091740   1.33408260  
1.20000000   2.53183713   1.61568063   1.81978805   1.30521195  
1.23000000   2.58005584   1.59910114   1.84643778   1.27856222  
1.26000000   2.62779538   1.58373958   1.87088448   1.25411552  
1.29000000   2.67509263   1.56961912   1.89314792   1.23185208  
1.32000000   2.72198514   1.55676015   1.91324891   1.21175109  
1.35000000   2.76851103   1.54518053   1.93120856   1.19379144  
1.38000000   2.81470892   1.53489573   1.94704755   1.17795245  
1.41000000   2.86061786   1.52591901   1.96078559   1.16421441  
1.44000000   2.90627726   1.51826160   1.97244085   1.15255915  
1.47000000   2.95172684   1.51193282   1.98202957   1.14297043  
1.50000000   2.99700659   1.50694019   1.98956563   1.13543437  
1.53000000   3.04215667   1.50328952   1.99506031   1.12993969  
1.56000000   3.08721742   1.50098499   1.99852203   1.12647797  
1.59000000   3.13222926   1.50002922   1.99995616   1.12504384  
1.62000000   3.17723267   1.50042330   1.99936496   1.12563504  
1.65000000   3.22226815   1.50216677   1.99674750   1.12825250  
1.68000000   3.26737615   1.50525767   1.99209968   1.13290032  
1.71000000   3.31259705   1.50969246   1.98541434   1.13958566  
1.74000000   3.35797109   1.51546601   1.97668138   1.14831862  
1.77000000   3.40353833   1.52257154   1.96588795   1.15911205  
1.80000000   3.44933862   1.53100048   1.95301876   1.17198124  
1.83000000   3.49541149   1.54074242   1.93805640   1.18694360  
1.86000000   3.54179617   1.55178496   1.92098172   1.20401828  
1.89000000   3.58853145   1.56411355   1.90177440   1.22322560  
1.92000000   3.63565567   1.57771137   1.88041342   1.24458658  
1.95000000   3.68320663   1.59255910   1.85687776   1.26812224  
1.98000000   3.73122150   1.60863475   1.83114712   1.29385288  
2.01000000   3.77973675   1.62591346   1.80320271   1.32179729  
2.04000000   3.82878806   1.64436723   1.77302821   1.35197179  
2.07000000   3.87841022   1.66396473   1.74061069   1.38438931  
2.10000000   3.92863703   1.68467102   1.70594177   1.41905823  
2.13000000   3.97950118   1.70644733   1.66901876   1.45598124  
2.16000000   4.03103415   1.72925075   1.62984593   1.49515407  
2.19000000   4.08326603   1.75303403   1.58843585   1.53656415  
2.22000000   4.13622547   1.77774530   1.54481083   1.58018917  
2.25000000   4.18993946   1.80332782   1.49900438   1.62599562  
2.28000000   4.24443323   1.82971979   1.45106275   1.67393725  
2.31000000   4.29973007   1.85685408   1.40104645   1.72395355  
2.34000000   4.35585118   1.88465813   1.34903187   1.77596813  
2.37000000   4.41281548   1.91305372   1.29511273   1.82988727  
2.40000000   4.47063948   1.94195694   1.23940162   1.88559838  
2.43000000   4.52933708   1.97127810   1.18203133   1.94296867  
2.46000000   4.58891939   2.00092173   1.12315612   2.00184388  
2.49000000   4.64939460   2.03078668   1.06295273   2.06204727  
2.52000000   4.71076774   2.06076625   1.00162124   2.12337876  
2.55000000   4.77304060   2.09074840   0.93938556   2.18561444  
2.58000000   4.83621150   2.12061612   0.87649364   2.24850636  
2.61000000   4.90027521   2.15024777   0.81321726   2.31178274  
2.64000000   4.96522275   2.17951767   0.74985136   2.37514864  
2.67000000   5.03104136   2.20829666   0.68671294   2.43828706  
2.70000000   5.09771432   2.23645284   0.62413936   2.50086064  
2.73000000   5.16522096   2.26385240   0.56248616   2.56251384  
2.76000000   5.23353655   2.29036054   0.50212430   2.62287570  
2.79000000   5.30263233   2.31584249   0.44343678   2.68156322  
2.82000000   5.37247550   2.34016461   0.38681480   2.73818520  
2.85000000   5.44302930   2.36319557   0.33265336   2.79234664  
2.88000000   5.51425305   2.38480756   0.28134645   2.84365355  
2.91000000   5.58610233   2.40487760   0.23328187   2.89171813  
2.94000000   5.65852911   2.42328877   0.18883577   2.93616423  
2.97000000   5.73148197   2.43993154   0.14836703   2.97663297  
3.00000000   5.80490631   2.45470501   0.11221167   3.01278833  
3.03000000   5.87874466   2.46751804   0.08067735   3.04432265  
3.06000000   5.95293698   2.47829048   0.05403815   3.07096185  
3.09000000   6.02742100   2.48695405   0.03252978   3.09247022  
3.12000000   6.10213258   2.49345330   0.01634532   3.10865468  
3.15000000   6.17700613   2.49774630   0.00563172   3.11936828  
3.18000000   6.25197501   2.49980519   0.00048700   3.12451300  
3.21000000   6.32697196   2.49961658   0.00095848   3.12404152  
3.24000000   6.40192953   2.49718169   0.00704182   3.11795818  
3.27000000   6.47678055   2.49251636   0.01868110   3.10631890  
3.30000000   6.55145851   2.48565084   0.03576995   3.08923005  
3.33000000   6.62589804   2.47662938   0.05815346   3.06684654  
3.36000000   6.70003528   2.46550963   0.08563114   3.03936886  
3.39000000   6.77380833   2.45236191   0.11796052   3.00703948  
3.42000000   6.84715754   2.43726832   0.15486156   2.97013844  
3.45000000   6.92002590   2.42032169   0.19602146   2.92897854  
3.48000000   6.99235933   2.40162446   0.24109998   2.88390002  
3.51000000   7.06410696   2.38128749   0.28973495   2.83526505  
3.54000000   7.13522136   2.35942880   0.34154787   2.78345213  
3.57000000   7.20565871   2.33617228   0.39614954   2.72885046  
3.60000000   7.27537900   2.31164641   0.45314544   2.67185456  
3.63000000   7.34434612   2.28598299   0.51214089   2.61285911  
3.66000000   7.41252794   2.25931593   0.57274576   2.55225424  
3.69000000   7.47989639   2.23178009   0.63457881   2.49042119  
3.72000000   7.54642741   2.20351017   0.69727147   2.42772853  
3.75000000   7.61210099   2.17463971   0.76047106   2.36452894  
3.78000000   7.67690110   2.14530022   0.82384349   2.30115651  
3.81000000   7.74081560   2.11562031   0.88707536   2.23792464  
3.84000000   7.80383617   2.08572503   0.94987555   2.17512445  
3.87000000   7.86595816   2.05573527   1.01197624   2.11302376  
3.90000000   7.92718050   2.02576725   1.07313352   2.05186648  
3.93000000   7.98750553   1.99593212   1.13312749   1.99187251  
3.96000000   8.04693882   1.96633566   1.19176203   1.93323797  
3.99000000   8.10548906   1.93707809   1.24886424   1.87613576  
4.02000000   8.16316784   1.90825390   1.30428353   1.82071647  
4.05000000   8.21998952   1.87995181   1.35789060   1.76710940  
4.08000000   8.27597100   1.85225478   1.40957612   1.71542388  
4.11000000   8.33113163   1.82524006   1.45924936   1.66575064  
4.14000000   8.38549295   1.79897930   1.50683674   1.61816326  
4.17000000   8.43907859   1.77353872   1.55228021   1.57271979  
4.20000000   8.49191408   1.74897925   1.59553579   1.52946421  
4.23000000   8.54402672   1.72535680   1.63657195   1.48842805  
4.26000000   8.59544537   1.70272246   1.67536811   1.44963189  
4.29000000   8.64620041   1.68112272   1.71191320   1.41308680  
4.32000000   8.69632351   1.66059978   1.74620419   1.37879581  
4.35000000   8.74584755   1.64119175   1.77824482   1.34675518  
4.38000000   8.79480650   1.62293295   1.80804432   1.31695568  
4.41000000   8.84323533   1.60585413   1.83561625   1.28938375  
4.44000000   8.89116983   1.58998275   1.86097743   1.26402257  
4.47000000   8.93864661   1.57534318   1.88414694   1.24085306  
4.50000000   8.98570295   1.56195693   1.90514527   1.21985473  
4.53000000   9.03237675   1.54984291   1.92399348   1.20100652  
4.56000000   9.07870641   1.53901753   1.94071252   1.18428748  
4.59000000   9.12473083   1.52949498   1.95532256   1.16967744  
4.62000000   9.17048926   1.52128730   1.96784247   1.15715753  
4.65000000   9.21602132   1.51440460   1.97828935   1.14671065  
4.68000000   9.26136687   1.50885513   1.98667809   1.13832191  
4.71000000   9.30656602   1.50464541   1.99302110   1.13197890  
4.74000000   9.35165904   1.50178028   1.99732800   1.12767200  
4.77000000   9.39668632   1.50026301   1.99960546   1.12539454  
4.80000000   9.44168832   1.50009531   1.99985702   1.12514298  
4.83000000   9.48670554   1.50127739   1.99808310   1.12691690  
4.86000000   9.53177845   1.50380789   1.99428091   1.13071909  
4.89000000   9.57694747   1.50768396   1.98844454   1.13655546  
4.92000000   9.62225290   1.51290112   1.98056511   1.14443489  
4.95000000   9.66773488   1.51945328   1.97063086   1.15436914  
4.98000000   9.71343337   1.52733264   1.95862750   1.16637250  
5.01000000   9.75938802   1.53652957   1.94453844   1.18046156  
5.04000000   9.80563820   1.54703251   1.92834521   1.19665479  
5.07000000   9.85222289   1.55882782   1.91002791   1.21497209  
5.10000000   9.89918064   1.57189965   1.88956574   1.23543426  
5.13000000   9.94654946   1.58622975   1.86693760   1.25806240  
5.16000000   9.99436680   1.60179725   1.84212278   1.28287722  
5.19000000   10.04266943  1.61857853   1.81510178   1.30989822  
5.22000000   10.09149338  1.63654691   1.78585711   1.33914289  
5.25000000   10.14087382  1.65567248   1.75437433   1.37062567  
5.28000000   10.19084497  1.67592183   1.72064301   1.40435699  
5.31000000   10.24144000  1.69725782   1.68465794   1.44034206  
5.34000000   10.29269089  1.71963929   1.64642035   1.47857965  
5.37000000   10.34462836  1.74302084   1.60593918   1.51906082  
5.40000000   10.39728165  1.76735254   1.56323251   1.56176749  
5.43000000   10.45067846  1.79257970   1.51832900   1.60667100  
5.46000000   10.50484479  1.81864267   1.47126942   1.65373058  
5.49000000   10.55980473  1.84547654   1.42210816   1.70289184  
5.52000000   10.61558039  1.87301105   1.37091480   1.75408520  
5.55000000   10.67219165  1.90117034   1.31777568   1.80722432  
5.58000000   10.72965604  1.92987287   1.26279535   1.86220465  
5.61000000   10.78798858  1.95903137   1.20609804   1.91890196  
5.64000000   10.84720156  1.98855277   1.14782894   1.97717106  
5.67000000   10.90730439  2.01833827   1.08815532   2.03684468  
5.70000000   10.96830345  2.04828345   1.02726746   2.09773254  
5.73000000   11.03020190  2.07827847   0.96537931   2.15962069  
5.76000000   11.09299951  2.10820833   0.90272883   2.22227117  
5.79000000   11.15669255  2.13795327   0.83957791   2.28542209  
5.82000000   11.22127362  2.16738922   0.77621199   2.34878801  
5.85000000   11.28673154  2.19638838   0.71293904   2.41206096  
5.88000000   11.35305124  2.22481991   0.65008819   2.47491181  
5.91000000   11.42021372  2.25255067   0.58800773   2.53699227  
5.94000000   11.48819593  2.27944617   0.52706257   2.59793743  
5.97000000   11.55697079  2.30537150   0.46763113   2.65736887  
6.00000000   11.62650718  2.33019240   0.41010170   2.71489830  
6.03000000   11.69676997  2.35377643   0.35486827   2.77013173  
6.06000000   11.76772010  2.37599416   0.30232586   2.82267414  
6.09000000   11.83931470  2.39672046   0.25286551   2.87213449  
6.12000000   11.91150721  2.41583573   0.20686887   2.91813113  
6.15000000   11.98424760  2.43322720   0.16470270   2.96029730  
6.18000000   12.05748256  2.44879023   0.12671321   2.99828679  
6.21000000   12.13115577  2.46242949   0.09322051   3.03177949  
6.24000000   12.20520824  2.47406011   0.06451328   3.06048672  
6.27000000   12.27957856  2.48360877   0.04084374   3.08415626  
6.30000000   12.35420333  2.49101458   0.02242317   3.10257683  
6.33000000   12.42901752  2.49622991   0.00941812   3.11558188  
6.36000000   12.50395488  2.49922099   0.00194723   3.12305277  
6.39000000   12.57894834  2.49996836   0.00007910   3.12492090  
6.42000000   12.65393049  2.49846716   0.00383092   3.12116908  
6.45000000   12.72883398  2.49472717   0.01316817   3.11183183  
6.48000000   12.80359197  2.48877268   0.02800528   3.09699472  
6.51000000   12.87813857  2.48064216   0.04820725   3.07679275  
6.54000000   12.95240926  2.47038777   0.07359214   3.05140786  
6.57000000   13.02634125  2.45807467   0.10393447   3.02106553  
6.60000000   13.09987392  2.44378016   0.13896926   2.98603074  
6.63000000   13.17294912  2.42759275   0.17839672   2.94660328  
6.66000000   13.24551154  2.40961101   0.22188739   2.90311261  
6.69000000   13.31750891  2.38994246   0.26908751   2.85591249  
6.72000000   13.38889237  2.36870229   0.31962473   2.80537527  
6.75000000   13.45961655  2.34601210   0.37311361   2.75188639  
6.78000000   13.52963986  2.32199862   0.42916121   2.69583879  
6.81000000   13.59892454  2.29679241   0.48737231   2.63762769  
6.84000000   13.66743681  2.27052666   0.54735433   2.57764567  
6.87000000   13.73514689  2.24333597   0.60872186   2.51627814  
6.90000000   13.80202906  2.21535522   0.67110062   2.45389938  
6.93000000   13.86806164  2.18671856   0.73413096   2.39086904  
6.96000000   13.93322694  2.15755845   0.79747076   2.32752924  
6.99000000   13.99751122  2.12800479   0.86079780   2.26420220  
7.02000000   14.06090456  2.09818420   0.92381152   2.20118848  
7.05000000   14.12340083  2.06821937   0.98623432   2.13876568  
7.08000000   14.18499747  2.03822850   1.04781229   2.07718771  
7.11000000   14.24569541  2.00832490   1.10831555   2.01668445  
7.14000000   14.30549892  1.97861662   1.16753813   1.95746187  
7.17000000   14.36441539  1.94920621   1.22529757   1.89970243  
7.20000000   14.42245524  1.92019056   1.28143411   1.84356589  
7.23000000   14.47963169  1.89166079   1.33580973   1.78919027  
7.26000000   14.53596060  1.86370226   1.38830695   1.73669305  
7.29000000   14.59146033  1.83639457   1.43882748   1.68617252  
7.32000000   14.64615153  1.80981170   1.48729080   1.63770920  
7.35000000   14.70005697  1.78402210   1.53363257   1.59136743  
7.38000000   14.75320142  1.75908889   1.57780315   1.54719685  
7.41000000   14.80561145  1.73507002   1.61976601   1.50523399  
7.44000000   14.85731529  1.71201858   1.65949620   1.46550380  
7.47000000   14.90834272  1.68998292   1.69697886   1.42802114  
7.50000000   14.95872487  1.66900701   1.73220779   1.39279221  
7.53000000   15.00849414  1.64913063   1.76518408   1.35981592  
7.56000000   15.05768406  1.63038965   1.79591480   1.32908520  
7.59000000   15.10632919  1.61281627   1.82441185   1.30058815  
7.62000000   15.15446500  1.59643928   1.85069081   1.27430919  
7.65000000   15.20212777  1.58128432   1.87476995   1.25023005  
7.68000000   15.24935451  1.56737407   1.89666927   1.22833073  
7.71000000   15.29618286  1.55472848   1.91640968   1.20859032  
7.74000000   15.34265104  1.54336498   1.93401227   1.19098773  
7.77000000   15.38879773  1.53329868   1.94949758   1.17550242  
7.80000000   15.43466206  1.52454248   1.96288511   1.16211489  
7.83000000   15.48028349  1.51710729   1.97419273   1.15080727  
7.86000000   15.52570180  1.51100211   1.98343631   1.14156369  
7.89000000   15.57095699  1.50623417   1.99062931   1.13437069  
7.92000000   15.61608928  1.50280900   1.99578255   1.12921745  
7.95000000   15.66113900  1.50073053   1.99890394   1.12609606  
7.98000000   15.70614660  1.50000110   1.99999835   1.12500165  
8.01000000   15.75115257  1.50062155   1.99906749   1.12593251  
8.04000000   15.79619739  1.50259117   1.99610989   1.12889011  
8.07000000   15.84132151  1.50590773   1.99112096   1.13387904  
8.10000000   15.88656528  1.51056744   1.98409301   1.14090699  
8.13000000   15.93196893  1.51656489   1.97501547   1.14998453  
8.16000000   15.97757248  1.52389300   1.96387506   1.16112494  
8.19000000   16.02341573  1.53254292   1.95065610   1.17434390  
8.22000000   16.06953817  1.54250390   1.93534087   1.18965913  
8.25000000   16.11597895  1.55376318   1.91790999   1.20709001  
8.28000000   16.16277679  1.56630587   1.89834296   1.22665704  
8.31000000   16.20996996  1.58011472   1.87661874   1.24838126  
8.34000000   16.25759614  1.59516999   1.85271636   1.27228364  
8.37000000   16.30569240  1.61144922   1.82661571   1.29838429  
8.40000000   16.35429508  1.62892703   1.79829837   1.32670163  
8.43000000   16.40343972  1.64757489   1.76774850   1.35725150  
8.46000000   16.45316096  1.66736087   1.73495386   1.39004614  
8.49000000   16.50349240  1.68824943   1.69990694   1.42509306  
8.52000000   16.55446656  1.71020109   1.66260612   1.46239388  
8.55000000   16.60611467  1.73317226   1.62305697   1.50194303  
8.58000000   16.65846661  1.75711491   1.58127359   1.54372641  
8.61000000   16.71155075  1.78197639   1.53728007   1.58771993  
8.64000000   16.76539381  1.80769912   1.49111195   1.63388805  
8.67000000   16.82002068  1.83422041   1.44281775   1.68218225  
8.70000000   16.87545434  1.86147224   1.39246055   1.73253945  
8.73000000   16.93171559  1.88938110   1.34011953   1.78488047  
8.76000000   16.98882298  1.91786784   1.28589148   1.83910852  
8.79000000   17.04679259  1.94684756   1.22989228   1.89510772  
8.82000000   17.10563786  1.97622962   1.17225825   1.95274175  
8.85000000   17.16536943  2.00591758   1.11314734   2.01185266  
8.88000000   17.22599496  2.03580934   1.05274016   2.07225984  
8.91000000   17.28751896  2.06579730   0.99124075   2.13375925  
8.94000000   17.34994263  2.09576856   0.92887706   2.19612294  
8.97000000   17.41326373  2.12560530   0.86590106   2.25909894  
9.00000000   17.47747638  2.15518516   0.80258847   2.32241153  
9.03000000   17.54257100  2.18438183   0.73923802   2.38576198  
9.06000000   17.60853416  2.21306563   0.67617025   2.44882975  
9.09000000   17.67534849  2.24110430   0.61372575   2.51127425  
9.12000000   17.74299263  2.26836379   0.55226286   2.57273714  
9.15000000   17.81144118  2.29470922   0.49215479   2.63284521  
