Tt           theta        dtheta/dt    Uw0^2/mg^2   Kw0^2/mg^2  
0.00000000   2.90000000   -0.00000000  1.98542598   -0.01446782 
0.00500000   2.89940973   -0.01681604  1.98535477   -0.01439660 
0.01000000   2.89763611   -0.03371263  1.98513974   -0.01418158 
0.01500000   2.89467064   -0.05077064  1.98477673   -0.01381857 
0.02000000   2.89049912   -0.06807154  1.98425870   -0.01330054 
0.02500000   2.88510161   -0.08569777  1.98357562   -0.01261745 
0.03000000   2.87845233   -0.10373299  1.98271425   -0.01175608 
0.03500000   2.87051958   -0.12226239  1.98165795   -0.01069979 
0.04000000   2.86126560   -0.14137299  1.98038633   -0.00942816 
0.04500000   2.85064646   -0.16115386  1.97887487   -0.00791671 
0.05000000   2.83861190   -0.18169641  1.97709452   -0.00613636 
0.05500000   2.82510513   -0.20309454  1.97501112   -0.00405296 
0.06000000   2.81006270   -0.22544489  1.97258483   -0.00162667 
0.06500000   2.79341425   -0.24884691  1.96976941   0.00118875  
0.07000000   2.77508234   -0.27340291  1.96651142   0.00444674  
0.07500000   2.75498226   -0.29921809  1.96274931   0.00820885  
0.08000000   2.73302179   -0.32640040  1.95841239   0.01254577  
0.08500000   2.70910106   -0.35506030  1.95341970   0.01753847  
0.09000000   2.68311236   -0.38531035  1.94767869   0.02327948  
0.09500000   2.65494000   -0.41726468  1.94108385   0.02987431  
0.10000000   2.62446026   -0.45103814  1.93351517   0.03744299  
0.10500000   2.59154135   -0.48674523  1.92483646   0.04612170  
0.11000000   2.55604351   -0.52449870  1.91489359   0.05606458  
0.11500000   2.51781914   -0.56440772  1.90351261   0.06744556  
0.12000000   2.47671321   -0.60657563  1.89049791   0.08046026  
0.12500000   2.43256367   -0.65109708  1.87563027   0.09532789  
0.13000000   2.38520226   -0.69805465  1.85866512   0.11229304  
0.13500000   2.33445545   -0.74751465  1.83933091   0.13162726  
0.14000000   2.28014577   -0.79952222  1.81732786   0.15363031  
0.14500000   2.22209347   -0.85409558  1.79232728   0.17863089  
0.15000000   2.16011870   -0.91121933  1.76397156   0.20698661  
0.15500000   2.09404405   -0.97083697  1.73187526   0.23908291  
0.16000000   2.02369779   -1.03284254  1.69562750   0.27533066  
0.16500000   1.94891760   -1.09707160  1.65479613   0.31616204  
0.17000000   1.86955507   -1.16329188  1.60893391   0.36202425  
0.17500000   1.78548075   -1.23119378  1.55758730   0.41337086  
0.18000000   1.69658989   -1.30038156  1.50030801   0.47065015  
0.18500000   1.60280882   -1.37036575  1.43666769   0.53429048  
0.19000000   1.50410167   -1.44055780  1.36627580   0.60468237  
0.19500000   1.40047748   -1.51026803  1.28880053   0.68215763  
0.20000000   1.29199721   -1.57870801  1.20399225   0.76696592  
0.20500000   1.17878045   -1.64499867  1.11170846   0.85924970  
0.21000000   1.06101129   -1.70818488  1.01193910   0.95901907  
0.21500000   0.93894296   -1.76725747  0.90483002   1.06612815  
0.22000000   0.81290062   -1.82118248  0.79070266   1.18025550  
0.22500000   0.68328189   -1.86893717  0.67006731   1.30089086  
0.23000000   0.55055463   -1.90955108  0.54362764   1.42733052  
0.23500000   0.41525172   -1.94214982  0.41227467   1.55868350  
0.24000000   0.27796284   -1.96599827  0.27706886   1.69388931  
0.24500000   0.13932321   -1.98053951  0.13921056   1.83174761  
0.25000000   0.00000000   -1.98542598  0.00000000   1.97095817  
0.25500000   -0.13932321  -1.98053951  -0.13921056  2.11016872  
0.26000000   -0.27796284  -1.96599827  -0.27706886  2.24802702  
0.26500000   -0.41525172  -1.94214982  -0.41227467  2.38323283  
0.27000000   -0.55055463  -1.90955108  -0.54362764  2.51458581  
0.27500000   -0.68328189  -1.86893717  -0.67006731  2.64102547  
0.28000000   -0.81290062  -1.82118248  -0.79070266  2.76166083  
0.28500000   -0.93894296  -1.76725747  -0.90483002  2.87578818  
0.29000000   -1.06101129  -1.70818488  -1.01193910  2.98289726  
0.29500000   -1.17878045  -1.64499867  -1.11170846  3.08266663  
0.30000000   -1.29199721  -1.57870801  -1.20399225  3.17495041  
0.30500000   -1.40047748  -1.51026803  -1.28880053  3.25975870  
0.31000000   -1.50410167  -1.44055780  -1.36627580  3.33723396  
0.31500000   -1.60280882  -1.37036575  -1.43666769  3.40762585  
0.32000000   -1.69658989  -1.30038156  -1.50030801  3.47126618  
0.32500000   -1.78548075  -1.23119378  -1.55758730  3.52854547  
0.33000000   -1.86955507  -1.16329188  -1.60893391  3.57989208  
0.33500000   -1.94891760  -1.09707160  -1.65479613  3.62575429  
0.34000000   -2.02369779  -1.03284254  -1.69562750  3.66658567  
0.34500000   -2.09404405  -0.97083697  -1.73187526  3.70283342  
0.35000000   -2.16011870  -0.91121933  -1.76397156  3.73492972  
0.35500000   -2.22209347  -0.85409558  -1.79232728  3.76328544  
0.36000000   -2.28014577  -0.79952222  -1.81732786  3.78828602  
0.36500000   -2.33445545  -0.74751465  -1.83933091  3.81028907  
0.37000000   -2.38520226  -0.69805465  -1.85866512  3.82962329  
0.37500000   -2.43256367  -0.65109708  -1.87563027  3.84658844  
0.38000000   -2.47671321  -0.60657563  -1.89049791  3.86145607  
0.38500000   -2.51781914  -0.56440772  -1.90351261  3.87447077  
0.39000000   -2.55604351  -0.52449870  -1.91489359  3.88585175  
0.39500000   -2.59154135  -0.48674523  -1.92483646  3.89579463  
0.40000000   -2.62446026  -0.45103814  -1.93351517  3.90447334  
0.40500000   -2.65494000  -0.41726468  -1.94108385  3.91204202  
0.41000000   -2.68311236  -0.38531035  -1.94767869  3.91863685  
0.41500000   -2.70910106  -0.35506030  -1.95341970  3.92437786  
0.42000000   -2.73302179  -0.32640040  -1.95841239  3.92937056  
0.42500000   -2.75498226  -0.29921809  -1.96274931  3.93370748  
0.43000000   -2.77508234  -0.27340291  -1.96651142  3.93746959  
0.43500000   -2.79341425  -0.24884691  -1.96976941  3.94072758  
0.44000000   -2.81006270  -0.22544489  -1.97258483  3.94354300  
0.44500000   -2.82510513  -0.20309454  -1.97501112  3.94596929  
0.45000000   -2.83861190  -0.18169641  -1.97709452  3.94805269  
0.45500000   -2.85064646  -0.16115386  -1.97887487  3.94983304  
0.46000000   -2.86126560  -0.14137299  -1.98038633  3.95134449  
0.46500000   -2.87051958  -0.12226239  -1.98165795  3.95261612  
0.47000000   -2.87845233  -0.10373299  -1.98271425  3.95367242  
0.47500000   -2.88510161  -0.08569777  -1.98357562  3.95453378  
0.48000000   -2.89049912  -0.06807154  -1.98425870  3.95521687  
0.48500000   -2.89467064  -0.05077064  -1.98477673  3.95573490  
0.49000000   -2.89763611  -0.03371263  -1.98513974  3.95609791  
0.49500000   -2.89940973  -0.01681604  -1.98535477  3.95631293  
0.50000000   -2.90000000  -0.00000000  -1.98542598  3.95638415  
0.50500000   -2.89940973  0.01681604   -1.98535477  3.95631293  
0.51000000   -2.89763611  0.03371263   -1.98513974  3.95609791  
0.51500000   -2.89467064  0.05077064   -1.98477673  3.95573490  
0.52000000   -2.89049912  0.06807154   -1.98425870  3.95521687  
0.52500000   -2.88510161  0.08569777   -1.98357562  3.95453378  
0.53000000   -2.87845233  0.10373299   -1.98271425  3.95367242  
0.53500000   -2.87051958  0.12226239   -1.98165795  3.95261612  
0.54000000   -2.86126560  0.14137299   -1.98038633  3.95134449  
0.54500000   -2.85064646  0.16115386   -1.97887487  3.94983304  
0.55000000   -2.83861190  0.18169641   -1.97709452  3.94805269  
0.55500000   -2.82510513  0.20309454   -1.97501112  3.94596929  
0.56000000   -2.81006270  0.22544489   -1.97258483  3.94354300  
0.56500000   -2.79341425  0.24884691   -1.96976941  3.94072758  
0.57000000   -2.77508234  0.27340291   -1.96651142  3.93746959  
0.57500000   -2.75498226  0.29921809   -1.96274931  3.93370748  
0.58000000   -2.73302179  0.32640040   -1.95841239  3.92937056  
0.58500000   -2.70910106  0.35506030   -1.95341970  3.92437786  
0.59000000   -2.68311236  0.38531035   -1.94767869  3.91863685  
0.59500000   -2.65494000  0.41726468   -1.94108385  3.91204202  
0.60000000   -2.62446026  0.45103814   -1.93351517  3.90447334  
0.60500000   -2.59154135  0.48674523   -1.92483646  3.89579463  
0.61000000   -2.55604351  0.52449870   -1.91489359  3.88585175  
0.61500000   -2.51781914  0.56440772   -1.90351261  3.87447077  
0.62000000   -2.47671321  0.60657563   -1.89049791  3.86145607  
0.62500000   -2.43256367  0.65109708   -1.87563027  3.84658844  
0.63000000   -2.38520226  0.69805465   -1.85866512  3.82962329  
0.63500000   -2.33445545  0.74751465   -1.83933091  3.81028907  
0.64000000   -2.28014577  0.79952222   -1.81732786  3.78828602  
0.64500000   -2.22209347  0.85409558   -1.79232728  3.76328544  
0.65000000   -2.16011870  0.91121933   -1.76397156  3.73492972  
0.65500000   -2.09404405  0.97083697   -1.73187526  3.70283342  
0.66000000   -2.02369779  1.03284254   -1.69562750  3.66658567  
0.66500000   -1.94891760  1.09707160   -1.65479613  3.62575429  
0.67000000   -1.86955507  1.16329188   -1.60893391  3.57989208  
0.67500000   -1.78548075  1.23119378   -1.55758730  3.52854547  
0.68000000   -1.69658989  1.30038156   -1.50030801  3.47126618  
0.68500000   -1.60280882  1.37036575   -1.43666769  3.40762585  
0.69000000   -1.50410167  1.44055780   -1.36627580  3.33723396  
0.69500000   -1.40047748  1.51026803   -1.28880053  3.25975870  
0.70000000   -1.29199721  1.57870801   -1.20399225  3.17495041  
0.70500000   -1.17878045  1.64499867   -1.11170846  3.08266663  
0.71000000   -1.06101129  1.70818488   -1.01193910  2.98289726  
0.71500000   -0.93894296  1.76725747   -0.90483002  2.87578818  
0.72000000   -0.81290062  1.82118248   -0.79070266  2.76166083  
0.72500000   -0.68328189  1.86893717   -0.67006731  2.64102547  
0.73000000   -0.55055463  1.90955108   -0.54362764  2.51458581  
0.73500000   -0.41525172  1.94214982   -0.41227467  2.38323283  
0.74000000   -0.27796284  1.96599827   -0.27706886  2.24802702  
0.74500000   -0.13932321  1.98053951   -0.13921056  2.11016872  
0.75000000   -0.00000000  1.98542598   -0.00000000  1.97095817  
0.75500000   0.13932321   1.98053951   0.13921056   1.83174761  
0.76000000   0.27796284   1.96599827   0.27706886   1.69388931  
0.76500000   0.41525172   1.94214982   0.41227467   1.55868350  
0.77000000   0.55055463   1.90955108   0.54362764   1.42733052  
0.77500000   0.68328189   1.86893717   0.67006731   1.30089086  
0.78000000   0.81290062   1.82118248   0.79070266   1.18025550  
0.78500000   0.93894296   1.76725747   0.90483002   1.06612815  
0.79000000   1.06101129   1.70818488   1.01193910   0.95901907  
0.79500000   1.17878045   1.64499867   1.11170846   0.85924970  
0.80000000   1.29199721   1.57870801   1.20399225   0.76696592  
0.80500000   1.40047748   1.51026803   1.28880053   0.68215763  
0.81000000   1.50410167   1.44055780   1.36627580   0.60468237  
0.81500000   1.60280882   1.37036575   1.43666769   0.53429048  
0.82000000   1.69658989   1.30038156   1.50030801   0.47065015  
0.82500000   1.78548075   1.23119378   1.55758730   0.41337086  
0.83000000   1.86955507   1.16329188   1.60893391   0.36202425  
0.83500000   1.94891760   1.09707160   1.65479613   0.31616204  
0.84000000   2.02369779   1.03284254   1.69562750   0.27533066  
0.84500000   2.09404405   0.97083697   1.73187526   0.23908291  
0.85000000   2.16011870   0.91121933   1.76397156   0.20698661  
0.85500000   2.22209347   0.85409558   1.79232728   0.17863089  
0.86000000   2.28014577   0.79952222   1.81732786   0.15363031  
0.86500000   2.33445545   0.74751465   1.83933091   0.13162726  
0.87000000   2.38520226   0.69805465   1.85866512   0.11229304  
0.87500000   2.43256367   0.65109708   1.87563027   0.09532789  
0.88000000   2.47671321   0.60657563   1.89049791   0.08046026  
0.88500000   2.51781914   0.56440772   1.90351261   0.06744556  
0.89000000   2.55604351   0.52449870   1.91489359   0.05606458  
0.89500000   2.59154135   0.48674523   1.92483646   0.04612170  
0.90000000   2.62446026   0.45103814   1.93351517   0.03744299  
0.90500000   2.65494000   0.41726468   1.94108385   0.02987431  
0.91000000   2.68311236   0.38531035   1.94767869   0.02327948  
0.91500000   2.70910106   0.35506030   1.95341970   0.01753847  
0.92000000   2.73302179   0.32640040   1.95841239   0.01254577  
0.92500000   2.75498226   0.29921809   1.96274931   0.00820885  
0.93000000   2.77508234   0.27340291   1.96651142   0.00444674  
0.93500000   2.79341425   0.24884691   1.96976941   0.00118875  
0.94000000   2.81006270   0.22544489   1.97258483   -0.00162667 
0.94500000   2.82510513   0.20309454   1.97501112   -0.00405296 
0.95000000   2.83861190   0.18169641   1.97709452   -0.00613636 
0.95500000   2.85064646   0.16115386   1.97887487   -0.00791671 
0.96000000   2.86126560   0.14137299   1.98038633   -0.00942816 
0.96500000   2.87051958   0.12226239   1.98165795   -0.01069979 
0.97000000   2.87845233   0.10373299   1.98271425   -0.01175608 
0.97500000   2.88510161   0.08569777   1.98357562   -0.01261745 
0.98000000   2.89049912   0.06807154   1.98425870   -0.01330054 
0.98500000   2.89467064   0.05077064   1.98477673   -0.01381857 
0.99000000   2.89763611   0.03371263   1.98513974   -0.01418158 
0.99500000   2.89940973   0.01681604   1.98535477   -0.01439660 
1.00000000   2.90000000   0.00000000   1.98542598   -0.01446782 
1.00500000   2.89940973   -0.01681604  1.98535477   -0.01439660 
1.01000000   2.89763611   -0.03371263  1.98513974   -0.01418158 
1.01500000   2.89467064   -0.05077064  1.98477673   -0.01381857 
1.02000000   2.89049912   -0.06807154  1.98425870   -0.01330054 
1.02500000   2.88510161   -0.08569777  1.98357562   -0.01261745 
1.03000000   2.87845233   -0.10373299  1.98271425   -0.01175608 
1.03500000   2.87051958   -0.12226239  1.98165795   -0.01069979 
1.04000000   2.86126560   -0.14137299  1.98038633   -0.00942816 
1.04500000   2.85064646   -0.16115386  1.97887487   -0.00791671 
1.05000000   2.83861190   -0.18169641  1.97709452   -0.00613636 
1.05500000   2.82510513   -0.20309454  1.97501112   -0.00405296 
1.06000000   2.81006270   -0.22544489  1.97258483   -0.00162667 
1.06500000   2.79341425   -0.24884691  1.96976941   0.00118875  
1.07000000   2.77508234   -0.27340291  1.96651142   0.00444674  
1.07500000   2.75498226   -0.29921809  1.96274931   0.00820885  
1.08000000   2.73302179   -0.32640040  1.95841239   0.01254577  
1.08500000   2.70910106   -0.35506030  1.95341970   0.01753847  
1.09000000   2.68311236   -0.38531035  1.94767869   0.02327948  
1.09500000   2.65494000   -0.41726468  1.94108385   0.02987431  
1.10000000   2.62446026   -0.45103814  1.93351517   0.03744299  
1.10500000   2.59154135   -0.48674523  1.92483646   0.04612170  
1.11000000   2.55604351   -0.52449870  1.91489359   0.05606458  
1.11500000   2.51781914   -0.56440772  1.90351261   0.06744556  
1.12000000   2.47671321   -0.60657563  1.89049791   0.08046026  
1.12500000   2.43256367   -0.65109708  1.87563027   0.09532789  
1.13000000   2.38520226   -0.69805465  1.85866512   0.11229304  
1.13500000   2.33445545   -0.74751465  1.83933091   0.13162726  
1.14000000   2.28014577   -0.79952222  1.81732786   0.15363031  
1.14500000   2.22209347   -0.85409558  1.79232728   0.17863089  
1.15000000   2.16011870   -0.91121933  1.76397156   0.20698661  
1.15500000   2.09404405   -0.97083697  1.73187526   0.23908291  
1.16000000   2.02369779   -1.03284254  1.69562750   0.27533066  
1.16500000   1.94891760   -1.09707160  1.65479613   0.31616204  
1.17000000   1.86955507   -1.16329188  1.60893391   0.36202425  
1.17500000   1.78548075   -1.23119378  1.55758730   0.41337086  
1.18000000   1.69658989   -1.30038156  1.50030801   0.47065015  
1.18500000   1.60280882   -1.37036575  1.43666769   0.53429048  
1.19000000   1.50410167   -1.44055780  1.36627580   0.60468237  
1.19500000   1.40047748   -1.51026803  1.28880053   0.68215763  
1.20000000   1.29199721   -1.57870801  1.20399225   0.76696592  
1.20500000   1.17878045   -1.64499867  1.11170846   0.85924970  
1.21000000   1.06101129   -1.70818488  1.01193910   0.95901907  
1.21500000   0.93894296   -1.76725747  0.90483002   1.06612815  
1.22000000   0.81290062   -1.82118248  0.79070266   1.18025550  
1.22500000   0.68328189   -1.86893717  0.67006731   1.30089086  
1.23000000   0.55055463   -1.90955108  0.54362764   1.42733052  
1.23500000   0.41525172   -1.94214982  0.41227467   1.55868350  
1.24000000   0.27796284   -1.96599827  0.27706886   1.69388931  
1.24500000   0.13932321   -1.98053951  0.13921056   1.83174761  
1.25000000   -0.00000000  -1.98542598  -0.00000000  1.97095817  
1.25500000   -0.13932321  -1.98053951  -0.13921056  2.11016872  
1.26000000   -0.27796284  -1.96599827  -0.27706886  2.24802702  
1.26500000   -0.41525172  -1.94214982  -0.41227467  2.38323283  
1.27000000   -0.55055463  -1.90955108  -0.54362764  2.51458581  
1.27500000   -0.68328189  -1.86893717  -0.67006731  2.64102547  
1.28000000   -0.81290062  -1.82118248  -0.79070266  2.76166083  
1.28500000   -0.93894296  -1.76725747  -0.90483002  2.87578818  
1.29000000   -1.06101129  -1.70818488  -1.01193910  2.98289726  
1.29500000   -1.17878045  -1.64499867  -1.11170846  3.08266663  
1.30000000   -1.29199721  -1.57870801  -1.20399225  3.17495041  
1.30500000   -1.40047748  -1.51026803  -1.28880053  3.25975870  
1.31000000   -1.50410167  -1.44055780  -1.36627580  3.33723396  
1.31500000   -1.60280882  -1.37036575  -1.43666769  3.40762585  
1.32000000   -1.69658989  -1.30038156  -1.50030801  3.47126618  
1.32500000   -1.78548075  -1.23119378  -1.55758730  3.52854547  
1.33000000   -1.86955507  -1.16329188  -1.60893391  3.57989208  
1.33500000   -1.94891760  -1.09707160  -1.65479613  3.62575429  
1.34000000   -2.02369779  -1.03284254  -1.69562750  3.66658567  
1.34500000   -2.09404405  -0.97083697  -1.73187526  3.70283342  
1.35000000   -2.16011870  -0.91121933  -1.76397156  3.73492972  
1.35500000   -2.22209347  -0.85409558  -1.79232728  3.76328544  
1.36000000   -2.28014577  -0.79952222  -1.81732786  3.78828602  
1.36500000   -2.33445545  -0.74751465  -1.83933091  3.81028907  
1.37000000   -2.38520226  -0.69805465  -1.85866512  3.82962329  
1.37500000   -2.43256367  -0.65109708  -1.87563027  3.84658844  
1.38000000   -2.47671321  -0.60657563  -1.89049791  3.86145607  
1.38500000   -2.51781914  -0.56440772  -1.90351261  3.87447077  
1.39000000   -2.55604351  -0.52449870  -1.91489359  3.88585175  
1.39500000   -2.59154135  -0.48674523  -1.92483646  3.89579463  
1.40000000   -2.62446026  -0.45103814  -1.93351517  3.90447334  
1.40500000   -2.65494000  -0.41726468  -1.94108385  3.91204202  
1.41000000   -2.68311236  -0.38531035  -1.94767869  3.91863685  
1.41500000   -2.70910106  -0.35506030  -1.95341970  3.92437786  
1.42000000   -2.73302179  -0.32640040  -1.95841239  3.92937056  
1.42500000   -2.75498226  -0.29921809  -1.96274931  3.93370748  
1.43000000   -2.77508234  -0.27340291  -1.96651142  3.93746959  
1.43500000   -2.79341425  -0.24884691  -1.96976941  3.94072758  
1.44000000   -2.81006270  -0.22544489  -1.97258483  3.94354300  
1.44500000   -2.82510513  -0.20309454  -1.97501112  3.94596929  
1.45000000   -2.83861190  -0.18169641  -1.97709452  3.94805269  
1.45500000   -2.85064646  -0.16115386  -1.97887487  3.94983304  
1.46000000   -2.86126560  -0.14137299  -1.98038633  3.95134449  
1.46500000   -2.87051958  -0.12226239  -1.98165795  3.95261612  
1.47000000   -2.87845233  -0.10373299  -1.98271425  3.95367242  
1.47500000   -2.88510161  -0.08569777  -1.98357562  3.95453378  
1.48000000   -2.89049912  -0.06807154  -1.98425870  3.95521687  
1.48500000   -2.89467064  -0.05077064  -1.98477673  3.95573490  
1.49000000   -2.89763611  -0.03371263  -1.98513974  3.95609791  
1.49500000   -2.89940973  -0.01681604  -1.98535477  3.95631293  
1.50000000   -2.90000000  -0.00000000  -1.98542598  3.95638415  
1.50500000   -2.89940973  0.01681604   -1.98535477  3.95631293  
1.51000000   -2.89763611  0.03371263   -1.98513974  3.95609791  
1.51500000   -2.89467064  0.05077064   -1.98477673  3.95573490  
1.52000000   -2.89049912  0.06807154   -1.98425870  3.95521687  
1.52500000   -2.88510161  0.08569777   -1.98357562  3.95453378  
